Energy(eV)           EEDF(eV^-(3/2))      Anisotropy(eV^-(3/2))
1.18078682891576e-01 3.39846065393691e-02 2.70216474994448e-03 
3.54236048674729e-01 3.39084305698842e-02 1.34146901300059e-02 
5.90393414457881e-01 3.38282369147275e-02 1.27846657908617e-02 
8.26550780241033e-01 3.37298503305077e-02 1.24767844477699e-02 
1.06270814602419e+00 3.36107963723523e-02 1.22322998207730e-02 
1.29886551180734e+00 3.34742205246968e-02 1.20054806653918e-02 
1.53502287759049e+00 3.33197905417582e-02 1.17905360197699e-02 
1.77118024337364e+00 3.31528030491703e-02 1.15807099465011e-02 
2.00733760915680e+00 3.29754694566674e-02 1.13725705591515e-02 
2.24349497493995e+00 3.27818251201341e-02 1.11697628400718e-02 
2.47965234072310e+00 3.25751409606097e-02 1.09685426416703e-02 
2.71580970650625e+00 3.23523989791442e-02 1.07723489968461e-02 
2.95196707228941e+00 3.21117399007541e-02 1.05820983783542e-02 
3.18812443807256e+00 3.18563559917568e-02 1.03959675196895e-02 
3.42428180385571e+00 3.15883083258661e-02 1.02147964655965e-02 
3.66043916963886e+00 3.13079834338280e-02 1.00410651306628e-02 
3.89659653542201e+00 3.10164940087594e-02 9.87529465623226e-03 
4.13275390120517e+00 3.07142405733212e-02 9.71657072637024e-03 
4.36891126698832e+00 3.03997366844865e-02 9.56442786689187e-03 
4.60506863277147e+00 3.00732998385849e-02 9.41879574423770e-03 
4.84122599855462e+00 2.97374722467596e-02 9.28002972388974e-03 
5.07738336433778e+00 2.93925147753863e-02 9.14834743254886e-03 
5.31354073012093e+00 2.90366115994929e-02 9.02252733060236e-03 
5.54969809590408e+00 2.86696081325853e-02 8.90038907695225e-03 
5.78585546168723e+00 2.82918101054485e-02 8.78093150124623e-03 
6.02201282747039e+00 2.79035213814559e-02 8.66387917059336e-03 
6.25817019325354e+00 2.75043855025531e-02 8.54924290751930e-03 
6.49432755903669e+00 2.70942609255867e-02 8.43711568723003e-03 
6.73048492481984e+00 2.66734465210895e-02 8.32742125427833e-03 
6.96664229060300e+00 2.62422361617104e-02 8.21986635999078e-03 
7.20279965638615e+00 2.57986544343687e-02 8.11423099222879e-03 
7.43895702216930e+00 2.53390622910309e-02 8.01040692168628e-03 
7.67511438795245e+00 2.48639368799510e-02 7.90785332866886e-03 
7.91127175373561e+00 2.43737519537627e-02 7.80655738337661e-03 
8.14742911951876e+00 2.38695295603158e-02 7.70665916229615e-03 
8.38358648530191e+00 2.33555968268638e-02 7.60782585315211e-03 
8.61974385108506e+00 2.28322803978376e-02 7.51023103946368e-03 
8.85590121686822e+00 2.22999069585770e-02 7.41375021892379e-03 
9.09205858265137e+00 2.17588063100509e-02 7.31830975488864e-03 
9.32821594843452e+00 2.12093027377018e-02 7.22392142589263e-03 
9.56437331421767e+00 2.06517117259065e-02 7.13062129357676e-03 
9.80053068000083e+00 2.00863391559200e-02 7.03844709337432e-03 
1.00366880457840e+01 1.95134811696564e-02 6.94774673478700e-03 
1.02728454115671e+01 1.89424648067754e-02 6.85798189834425e-03 
1.05090027773503e+01 1.83780271368262e-02 6.76920434033515e-03 
1.07451601431334e+01 1.78200877483852e-02 6.68162939543210e-03 
1.09813175089166e+01 1.72685658874626e-02 6.59510322063979e-03 
1.12174748746997e+01 1.67234062301076e-02 6.50935184732722e-03 
1.14536322404829e+01 1.61845732315719e-02 6.42402387591253e-03 
1.16897896062660e+01 1.56519233231181e-02 6.33808358044713e-03 
1.19259469720492e+01 1.51252681170112e-02 6.25031997381909e-03 
1.21621043378323e+01 1.46055304335013e-02 6.16050615066665e-03 
1.23982617036155e+01 1.40958818095297e-02 6.06875248568303e-03 
1.26344190693987e+01 1.35963827825258e-02 5.97548055407844e-03 
1.28705764351818e+01 1.31070516208973e-02 5.88078984247530e-03 
1.31067338009650e+01 1.26278554115633e-02 5.78470325668445e-03 
1.33428911667481e+01 1.21588311429900e-02 5.68738071679808e-03 
1.35790485325313e+01 1.16999926010930e-02 5.58905841863093e-03 
1.38152058983144e+01 1.12513357368545e-02 5.48978117695414e-03 
1.40513632640976e+01 1.08127531588462e-02 5.38949149404581e-03 
1.42875206298807e+01 1.03842527894150e-02 5.28831746143241e-03 
1.45236779956639e+01 9.96581854168867e-03 5.18655537038565e-03 
1.47598353614470e+01 9.55741068738886e-03 5.08419874670142e-03 
1.49959927272302e+01 9.15881727051287e-03 4.98095968808493e-03 
1.52321500930133e+01 8.77040531450859e-03 4.87670630921054e-03 
1.54683074587965e+01 8.39259278062931e-03 4.77167007318977e-03 
1.57044648245796e+01 8.02532242296188e-03 4.66618931665424e-03 
1.59406221903628e+01 7.66845723380042e-03 4.55724214079658e-03 
1.61767795561459e+01 7.32169592074441e-03 4.44479893802259e-03 
1.64129369219291e+01 6.98487811008218e-03 4.32907099127495e-03 
1.66490942877122e+01 6.65843059577725e-03 4.21079134425990e-03 
1.68852516534954e+01 6.34237964070444e-03 4.09110598236717e-03 
1.71214090192785e+01 6.03694253054281e-03 3.97040098537743e-03 
1.73575663850617e+01 5.74268139242671e-03 3.84848373482307e-03 
1.75937237508449e+01 5.45975732251644e-03 3.72560221618926e-03 
1.78298811166280e+01 5.18784946104965e-03 3.60223488917610e-03 
1.80660384824112e+01 4.92704465860776e-03 3.47868094528830e-03 
1.83021958481943e+01 4.67699369208731e-03 3.35538926913010e-03 
1.85383532139775e+01 4.43771775830685e-03 3.23266484712048e-03 
1.87745105797606e+01 4.20890536515646e-03 3.11106100289463e-03 
1.90106679455438e+01 3.99052719344211e-03 2.99084877540357e-03 
1.92468253113269e+01 3.78218057407096e-03 2.87240691625713e-03 
1.94829826771101e+01 3.58376095089790e-03 2.75583305485577e-03 
1.97191400428932e+01 3.39485765053684e-03 2.64141807552763e-03 
1.99552974086764e+01 3.21533156908805e-03 2.52919685105864e-03 
2.01914547744595e+01 3.04442798482745e-03 2.41952517358992e-03 
2.04276121402427e+01 2.88122225742121e-03 2.31273834743596e-03 
2.06637695060258e+01 2.72538580381518e-03 2.20892058166265e-03 
2.08999268718090e+01 2.57680813632782e-03 2.10803006495950e-03 
2.11360842375921e+01 2.43516770600029e-03 2.01019357064816e-03 
2.13722416033753e+01 2.30033784638961e-03 1.91534922497889e-03 
2.16083989691584e+01 2.17200681590791e-03 1.82358757934076e-03 
2.18445563349416e+01 2.05003679649200e-03 1.73482685856765e-03 
2.20807137007248e+01 1.93412857119659e-03 1.64917151000094e-03 
2.23168710665079e+01 1.82417472589798e-03 1.56668461489574e-03 
2.25530284322911e+01 1.71995972011245e-03 1.48755315846375e-03 
2.27891857980742e+01 1.62129241179880e-03 1.41172118566835e-03 
2.30253431638574e+01 1.52786535876573e-03 1.33915143349418e-03 
2.32615005296405e+01 1.43949516319542e-03 1.26968398175426e-03 
2.34976578954237e+01 1.35589915165162e-03 1.20327238326119e-03 
2.37338152612068e+01 1.27690315797826e-03 1.13976794959908e-03 
2.39699726269900e+01 1.20225108320800e-03 1.07912756221905e-03 
2.42061299927731e+01 1.13178126602608e-03 1.02121524019771e-03 
2.44422873585563e+01 1.06525408037580e-03 9.65977138004706e-04 
2.46784447243394e+01 1.00251301420972e-03 9.13284733962551e-04 
2.49146020901226e+01 9.43350217667121e-04 8.63101716729905e-04 
2.51507594559057e+01 8.87608149770489e-04 8.15321776158717e-04 
2.53869168216889e+01 8.34950231701022e-04 7.69973214362375e-04 
2.56230741874720e+01 7.85246789905539e-04 7.26904251810994e-04 
2.58592315532552e+01 7.38323320569685e-04 6.86039907312780e-04 
2.60953889190383e+01 6.94060208802380e-04 6.47254837503032e-04 
2.63315462848215e+01 6.52299698091586e-04 6.10477484223880e-04 
2.65677036506046e+01 6.12931766077609e-04 5.75593215319046e-04 
2.68038610163878e+01 5.75813968116831e-04 5.42534124104311e-04 
2.70400183821710e+01 5.40845378959333e-04 5.11209959204555e-04 
2.72761757479541e+01 5.07909929645610e-04 4.81576903952618e-04 
2.75123331137373e+01 4.76916751568230e-04 4.53554753661814e-04 
2.77484904795204e+01 4.47744414180001e-04 4.27082043444578e-04 
2.79846478453036e+01 4.20303594621839e-04 4.02063973378991e-04 
2.82208052110867e+01 3.94485867193630e-04 3.78437534615855e-04 
2.84569625768699e+01 3.70210669079551e-04 3.56117427778864e-04 
2.86931199426530e+01 3.47381258518582e-04 3.35045949559068e-04 
2.89292773084362e+01 3.25925076097483e-04 3.15146388000406e-04 
2.91654346742193e+01 3.05755871761519e-04 2.96365991796026e-04 
2.94015920400025e+01 2.86808385708113e-04 2.78635804969450e-04 
2.96377494057856e+01 2.69005784335830e-04 2.61907666958509e-04 
2.98739067715688e+01 2.52289456952976e-04 2.46119615025171e-04 
3.01100641373519e+01 2.36591018242641e-04 2.31236208527830e-04 
3.03462215031351e+01 2.21854105253462e-04 2.17219617891311e-04 
3.05823788689182e+01 2.08015966881646e-04 2.04035177830639e-04 
3.08185362347014e+01 1.95027860922197e-04 1.91629034614821e-04 
3.10546936004845e+01 1.82834385532705e-04 1.79961480943991e-04 
3.12908509662677e+01 1.71392180004775e-04 1.68984539378286e-04 
3.15270083320508e+01 1.60652298162510e-04 1.58662696300440e-04 
3.17631656978340e+01 1.50576186020273e-04 1.48953447923386e-04 
3.19993230636172e+01 1.41120610520359e-04 1.39825019822129e-04 
3.22354804294003e+01 1.32251312504377e-04 1.31239747614342e-04 
3.24716377951835e+01 1.23930116133865e-04 1.23169461587085e-04 
3.27077951609666e+01 1.16126806869980e-04 1.15581356249260e-04 
3.29439525267498e+01 1.08807935650283e-04 1.08451262181396e-04 
3.31801098925329e+01 1.01946981309590e-04 1.01752317435096e-04 
3.34162672583161e+01 9.55155590653314e-05 9.54637447715510e-05 
3.36524246240992e+01 8.94888176624206e-05 8.95601102685040e-05 
3.38885819898824e+01 8.38397474067119e-05 8.40200307911723e-05 
3.41247393556655e+01 7.85464362059574e-05 7.88192828684929e-05 
3.43608967214487e+01 7.35851715962277e-05 7.39389437296011e-05 
3.45970540872318e+01 6.89366368180862e-05 6.93577039293083e-05 
3.48332114530150e+01 6.45800144779634e-05 6.50588208361101e-05 
3.50693688187981e+01 6.04982791542437e-05 6.10245351801341e-05 
3.53055261845813e+01 5.66740260388685e-05 5.72404530516996e-05 
3.55416835503644e+01 5.30916000780567e-05 5.36898120364576e-05 
3.57778409161476e+01 4.97343390363078e-05 5.03584511009923e-05 
3.60139982819307e+01 4.65890666477324e-05 4.72313092062246e-05 
3.62501556477139e+01 4.36417470241195e-05 4.42968734080340e-05 
3.64863130134970e+01 4.08807675595464e-05 4.15424127965351e-05 
3.67224703792802e+01 3.82938067869117e-05 3.89577435603967e-05 
3.69586277450634e+01 3.58706322906785e-05 3.65316706969046e-05 
3.71947851108465e+01 3.36004273731527e-05 3.42551848256411e-05 
3.74309424766297e+01 3.14741780206867e-05 3.21186271072975e-05 
3.76670998424128e+01 2.94825706452560e-05 3.01149158196816e-05 
3.79032572081960e+01 2.76182523546853e-05 2.82360669534279e-05 
3.81394145739791e+01 2.58726300096344e-05 2.64754335970514e-05 
3.83755719397623e+01 2.42384842664997e-05 2.48250184866006e-05 
3.86117293055454e+01 2.27083095173523e-05 2.32782989352342e-05 
3.88478866713286e+01 2.12757801219989e-05 2.18282806176232e-05 
3.90840440371117e+01 1.99343390918864e-05 2.04692329020694e-05 
3.93202014028949e+01 1.86784436761122e-05 1.91950357091831e-05 
3.95563587686780e+01 1.75023647083505e-05 1.80006542669353e-05 
3.97925161344612e+01 1.64012452553103e-05 1.68807332870820e-05 
4.00286735002443e+01 1.53700785816135e-05 1.58310742984862e-05 
4.02648308660275e+01 1.44048083086659e-05 1.48472903082556e-05 
4.05009882318106e+01 1.35011084464994e-05 1.39257437709254e-05 
4.07371455975938e+01 1.26551558263257e-05 1.30623269149302e-05 
4.09733029633769e+01 1.18630450898372e-05 1.22535120168947e-05 
4.12094603291601e+01 1.11214361695809e-05 1.14955980253563e-05 
4.14456176949433e+01 1.04269250969541e-05 1.07854947380244e-05 
4.16817750607264e+01 9.77659349829731e-06 1.01199716963242e-05 
4.19179324265096e+01 9.16747360690969e-06 9.49632721046750e-06 
4.21540897922927e+01 8.59701741444627e-06 8.91175977306442e-06 
4.23902471580759e+01 8.06264910461935e-06 8.36391535377485e-06 
4.26264045238590e+01 7.56213400955712e-06 7.85034232622160e-06 
4.28625618896422e+01 7.09320949077932e-06 7.36896154604526e-06 
4.30987192554253e+01 6.65392202461535e-06 6.91761904715487e-06 
4.33348766212085e+01 6.24229730522861e-06 6.49449460073643e-06 
4.35710339869916e+01 5.85662708340939e-06 6.09770722618728e-06 
4.38071913527748e+01 5.49518800745323e-06 5.72566288701351e-06 
4.40433487185579e+01 5.15648587222968e-06 5.37671835103328e-06 
4.42795060843411e+01 4.83901582959771e-06 5.04947728864385e-06 
4.45156634501242e+01 4.54147051423075e-06 4.74250355808072e-06 
4.47518208159074e+01 4.26253540466902e-06 4.45457357297338e-06 
4.49879781816905e+01 4.00106628548683e-06 4.18443165228278e-06 
4.52241355474737e+01 3.75591448592553e-06 3.93100525713285e-06 
4.54602929132568e+01 3.52607829620789e-06 3.69319605722965e-06 
4.56964502790400e+01 3.31055362287666e-06 3.47006362873527e-06 
4.59326076448231e+01 3.10846326649729e-06 3.26064689804496e-06 
4.61687650106063e+01 2.91892921368389e-06 3.06412103034463e-06 
4.64049223763895e+01 2.74118308462424e-06 2.87964472904913e-06 
4.66410797421726e+01 2.57445685636366e-06 2.70649431862481e-06 
4.68772371079558e+01 2.41807728356844e-06 2.54393306725895e-06 
4.71133944737389e+01 2.27137233292050e-06 2.39132585554638e-06 
4.73495518395221e+01 2.13375195429491e-06 2.24802727164818e-06 
4.75857092053052e+01 2.00462791628618e-06 2.11347974116872e-06 
4.78218665710884e+01 1.88348294495803e-06 1.98711763532165e-06 
4.80580239368715e+01 1.76980199746711e-06 1.86844695075501e-06 
4.82941813026547e+01 1.66312750662075e-06 1.75696715796903e-06 
4.85303386684378e+01 1.56300827840827e-06 1.65224417337330e-06 
4.87664960342210e+01 1.46904787379770e-06 1.55384368387524e-06 
4.90026534000041e+01 1.38085231125680e-06 1.46138952882198e-06 
4.92388107657873e+01 1.29807362152343e-06 1.37450170703347e-06 
4.94749681315704e+01 1.22036638717270e-06 1.29284932849501e-06 
4.97111254973536e+01 1.14742512276990e-06 1.21609863832431e-06 
4.99472828631367e+01 1.07894691644960e-06 1.14395324828865e-06 
5.01834402289199e+01 1.01464374201051e-06 1.07611873843334e-06 
5.04195975947030e+01 9.54203528441856e-07 1.01236261130022e-06 
5.06557549604862e+01 8.97398315883024e-07 9.52416531003029e-07 
5.08919123262693e+01 8.44001677751421e-07 8.96058050807781e-07 
5.11280696920525e+01 7.93812583768493e-07 8.43063533207420e-07 
5.13642270578356e+01 7.46631579822119e-07 7.93236677587442e-07 
5.16003844236188e+01 7.02281358598311e-07 7.46380419552846e-07 
5.18365417894020e+01 6.60586193508384e-07 7.02321506766969e-07 
5.20726991551851e+01 6.21389678357699e-07 6.60884223488740e-07 
5.23088565209683e+01 5.84535095724809e-07 6.21913691992296e-07 
5.25450138867514e+01 5.49884581337527e-07 5.85255113375142e-07 
5.27811712525346e+01 5.17302255576076e-07 5.50773873248498e-07 
5.30173286183177e+01 4.86666886657022e-07 5.18335765698189e-07 
5.32534859841009e+01 4.57858627701079e-07 4.87822258436279e-07 
5.34896433498840e+01 4.30770430932573e-07 4.59114908154778e-07 
5.37258007156672e+01 4.05296576665033e-07 4.32108952878982e-07 
5.39619580814503e+01 3.81342532762678e-07 4.06699843027564e-07 
5.41981154472335e+01 3.58815029704951e-07 3.82794975665319e-07 
5.44342728130166e+01 3.37630580212354e-07 3.60302049604142e-07 
5.46704301787998e+01 3.17706888785224e-07 3.39139199268935e-07 
5.49065875445829e+01 2.98970216272712e-07 3.19225273802327e-07 
5.51427449103661e+01 2.81348264472510e-07 3.00490983181431e-07 
5.53789022761492e+01 2.64778411007478e-07 2.82866632638029e-07 
5.56150596419324e+01 2.49195736477794e-07 2.66290022372917e-07 
5.58512170077155e+01 2.34541970013041e-07 2.50696468790757e-07 
5.60873743734987e+01 2.20759905871000e-07 2.36028426988942e-07 
5.63235317392818e+01 2.07798146936686e-07 2.22228880936177e-07 
5.65596891050650e+01 1.95606273752248e-07 2.09247045868294e-07 
5.67958464708482e+01 1.84138943578639e-07 1.97032652900560e-07 
5.70320038366313e+01 1.73351708705032e-07 1.85540874560649e-07 
5.72681612024145e+01 1.63204560081782e-07 1.74727380602098e-07 
5.75043185681976e+01 1.53658306146198e-07 1.64552594367690e-07 
5.77404759339808e+01 1.44677637535041e-07 1.54977413862666e-07 
5.79766332997639e+01 1.36227990009260e-07 1.45966891447290e-07 
5.82127906655471e+01 1.28278196039416e-07 1.37486529048232e-07 
5.84489480313302e+01 1.20797766010315e-07 1.29505460666947e-07 
5.86851053971134e+01 1.13759183283922e-07 1.21993258976824e-07 
5.89212627628965e+01 1.07135545213602e-07 1.14922696539685e-07 
5.91574201286797e+01 1.00902549569491e-07 1.08266931205947e-07 
5.93935774944628e+01 9.50364520072475e-08 1.02001871835874e-07 
5.96297348602460e+01 8.95157886341430e-08 9.61037862773092e-08 
5.98658922260291e+01 8.43196018672381e-08 9.05513764325393e-08 
6.01020495918123e+01 7.94289320668566e-08 8.53236873095760e-08 
6.03382069575954e+01 7.48252775205170e-08 8.04018951051841e-08 
6.05743643233786e+01 7.04918875296858e-08 7.57674929981777e-08 
6.08105216891617e+01 6.64124251099912e-08 7.14038408428152e-08 
6.10466790549449e+01 6.25720883839441e-08 6.72945904470146e-08 
6.12828364207281e+01 5.89564488712834e-08 6.34250291984177e-08 
6.15189937865112e+01 5.55524243497058e-08 5.97807126627114e-08 
6.17551511522944e+01 5.23472692998181e-08 5.63486300071974e-08 
6.19913085180775e+01 4.93294192208307e-08 5.31160161504555e-08 
6.22274658838607e+01 4.64876129745902e-08 5.00713630161404e-08 
6.24636232496438e+01 4.38116258104457e-08 4.72033872497554e-08 
6.26997806154270e+01 4.12915060940662e-08 4.45019080393606e-08 
6.29359379812101e+01 3.89182119426421e-08 4.19569496748461e-08 
6.31720953469933e+01 3.66829471882299e-08 3.95595038359886e-08 
6.34082527127764e+01 3.45777144974812e-08 3.73007490784187e-08 
6.36444100785596e+01 3.25947374588812e-08 3.51727130477456e-08 
6.38805674443427e+01 3.07269413143786e-08 3.31675932170435e-08 
6.41167248101259e+01 2.89674498401472e-08 3.12783321629491e-08 
6.43528821759090e+01 2.73100033353761e-08 2.94980267361995e-08 
6.45890395416922e+01 2.57485204219454e-08 2.78204286412474e-08 
6.48251969074753e+01 2.42774615606206e-08 2.62394297912612e-08 
6.50613542732585e+01 2.28914472792031e-08 2.47494974250659e-08 
6.52975116390416e+01 2.15855744472645e-08 2.33452258389798e-08 
6.55336690048248e+01 2.03550835507157e-08 2.20217149469719e-08 
6.57698263706079e+01 1.91956339589714e-08 2.07741796843803e-08 
6.60059837363911e+01 1.81030138451546e-08 1.95982794828002e-08 
6.62421411021743e+01 1.70733798441654e-08 1.84897778016252e-08 
6.64782984679574e+01 1.61030040664569e-08 1.74448289859739e-08 
6.67144558337406e+01 1.51884828237741e-08 1.64596813854302e-08 
6.69506131995237e+01 1.43265159188041e-08 1.55309271970328e-08 
6.71867705653069e+01 1.35140884916261e-08 1.46552434982934e-08 
6.74229279310900e+01 1.27482784032141e-08 1.38296099289245e-08 
6.76590852968732e+01 1.20264147163875e-08 1.30510827158521e-08 
6.78952426626563e+01 1.13459095416025e-08 1.23169844006170e-08 
6.81314000284395e+01 1.07043961997955e-08 1.16247065837419e-08 
6.83675573942226e+01 1.00995823757536e-08 1.09718753455835e-08 
6.86037147600058e+01 9.52937060669951e-09 1.03561789998783e-08 
6.88398721257889e+01 8.99173000178085e-09 9.77551237219797e-09 
6.90760294915721e+01 8.48480135095703e-09 9.22782633967716e-09 
6.93121868573552e+01 8.00678502741046e-09 8.71125371275938e-09 
6.95483442231384e+01 7.55603270885375e-09 8.22397776025602e-09 
6.97845015889215e+01 7.13094939037832e-09 7.76434207784124e-09 
7.00206589547047e+01 6.73007344832428e-09 7.33071736445544e-09 
7.02568163204878e+01 6.35197379346547e-09 6.92160891248587e-09 
7.04929736862710e+01 5.99534729411715e-09 6.53556672701213e-09 
7.07291310520541e+01 5.65894736749854e-09 6.17128421958875e-09 
7.09652884178373e+01 5.34163035276870e-09 5.82750323355269e-09 
7.12014457836205e+01 5.04229001538597e-09 5.50307437928916e-09 
7.14376031494036e+01 4.75991098896161e-09 5.19688029971685e-09 
7.16737605151868e+01 4.49351144270621e-09 4.90789966302137e-09 
7.19099178809699e+01 4.24218979060501e-09 4.63513999070413e-09 
7.21460752467531e+01 4.00507449029347e-09 4.37769360079581e-09 
7.23822326125362e+01 3.78136487926036e-09 4.13467878993980e-09 
7.26183899783194e+01 3.57028720563906e-09 3.90528875327606e-09 
7.28545473441025e+01 3.37113033996248e-09 3.68874006703242e-09 
7.30907047098857e+01 3.18320725333428e-09 3.48431547856602e-09 
7.33268620756688e+01 3.00588625665282e-09 3.29131877076620e-09 
