Energy(eV)           EEDF(eV^-(3/2))      Anisotropy(eV^-(3/2))
1.46263035996086e-03 2.27083195397990e+00 9.06342028720794e-04 
4.38789107988259e-03 2.26582157190648e+00 1.27027888313720e-03 
7.31315179980432e-03 2.25846297483846e+00 1.84011776440722e-03 
1.02384125197260e-02 2.25042402615039e+00 2.23085453451322e-03 
1.31636732396478e-02 2.24238109745178e+00 2.51700573802474e-03 
1.60889339595695e-02 2.23453563610483e+00 2.76883173492031e-03 
1.90141946794912e-02 2.22665850307879e+00 2.99773703166034e-03 
2.19394553994129e-02 2.21890906773031e+00 3.19493971689725e-03 
2.48647161193347e-02 2.21124515288892e+00 3.35714398966803e-03 
2.77899768392564e-02 2.20385774017806e+00 3.46135677752587e-03 
3.07152375591781e-02 2.19690667448334e+00 3.55313968015409e-03 
3.36404982790999e-02 2.19017004824655e+00 3.65999015008030e-03 
3.65657589990216e-02 2.18361980199073e+00 3.74671112320001e-03 
3.94910197189433e-02 2.17733476790307e+00 3.80984349039009e-03 
4.24162804388650e-02 2.17131087754861e+00 3.87585722282118e-03 
4.53415411587868e-02 2.16545354354743e+00 3.93913765969514e-03 
4.82668018787085e-02 2.15980866802437e+00 3.97798153522524e-03 
5.11920625986302e-02 2.15441655843955e+00 3.99854370521183e-03 
5.41173233185519e-02 2.14927977660182e+00 4.00251684553846e-03 
5.70425840384737e-02 2.14442471611134e+00 3.98447097434442e-03 
5.99678447583954e-02 2.13987635110569e+00 3.94383820678210e-03 
6.28931054783171e-02 2.13565501086264e+00 3.88062097225570e-03 
6.58183661982388e-02 2.13177642383880e+00 3.79478558001508e-03 
6.87436269181606e-02 2.12825174542315e+00 3.68993795597363e-03 
7.16688876380823e-02 2.12507381155030e+00 3.61774173789978e-03 
7.45941483580040e-02 2.12206800200605e+00 3.58286437540025e-03 
7.75194090779257e-02 2.11924284323047e+00 3.53434641632996e-03 
8.04446697978475e-02 2.11660518467351e+00 3.47218589286020e-03 
8.33699305177692e-02 2.11416020732233e+00 3.39637015928783e-03 
8.62951912376909e-02 2.11191142928663e+00 3.30687699261806e-03 
8.92204519576126e-02 2.10986070852659e+00 3.20367596166763e-03 
9.21457126775344e-02 2.10800824285197e+00 3.08673012097827e-03 
9.50709733974561e-02 2.10635256736676e+00 2.95599811813173e-03 
9.79962341173778e-02 2.10489054958068e+00 2.81143685980898e-03 
1.00921494837300e-01 2.10361738245705e+00 2.69723355189676e-03 
1.03846755557221e-01 2.10244469647594e+00 2.63172500746031e-03 
1.06772016277143e-01 2.10135398685752e+00 2.56967547673704e-03 
1.09697276997065e-01 2.10034563557354e+00 2.50031975108368e-03 
1.12622537716986e-01 2.09941955414382e+00 2.42365037216679e-03 
1.15547798436908e-01 2.09857518345111e+00 2.33965893606329e-03 
1.18473059156830e-01 2.09781149328785e+00 2.24833657352456e-03 
1.21398319876752e-01 2.09712698165745e+00 2.17893578248709e-03 
1.24323580596673e-01 2.09648352284249e+00 2.13618885992672e-03 
1.27248841316595e-01 2.09588049896905e+00 2.08975743078900e-03 
1.30174102036517e-01 2.09531796334360e+00 2.03894627370807e-03 
1.33099362756439e-01 2.09479580057405e+00 1.98375334758145e-03 
1.36024623476360e-01 2.09431372654772e+00 1.92417636143691e-03 
1.38949884196282e-01 2.09387128836311e+00 1.86021290016721e-03 
1.41875144916204e-01 2.09346786421851e+00 1.79186057960262e-03 
1.44800405636125e-01 2.09310266326128e+00 1.71911724154657e-03 
1.47725666356047e-01 2.09277472540183e+00 1.64198120531764e-03 
1.50650927075969e-01 2.09248292109702e+00 1.57549231434814e-03 
1.53576187795891e-01 2.09221505594691e+00 1.52780572515990e-03 
1.56501448515812e-01 2.09196658661162e+00 1.48362033973481e-03 
1.59426709235734e-01 2.09173725864457e+00 1.43671629352520e-03 
1.62351969955656e-01 2.09152675280123e+00 1.38709312647397e-03 
1.65277230675578e-01 2.09133468500702e+00 1.33475052900537e-03 
1.68202491395499e-01 2.09116060631887e+00 1.27968843397944e-03 
1.71127752115421e-01 2.09100400288130e+00 1.23752673027036e-03 
1.74053012835343e-01 2.09085652299552e+00 1.21224608117061e-03 
1.76978273555264e-01 2.09071710613299e+00 1.18762094073219e-03 
1.79903534275186e-01 2.09058571146609e+00 1.16151646543414e-03 
1.82828794995108e-01 2.09046227900921e+00 1.13393259347411e-03 
1.85754055715030e-01 2.09034672961738e+00 1.10486927029643e-03 
1.88679316434951e-01 2.09023896498405e+00 1.07432645986791e-03 
1.91604577154873e-01 2.09013886763785e+00 1.04230415848068e-03 
1.94529837874795e-01 2.09004630093861e+00 1.00880241183802e-03 
1.97455098594717e-01 2.08996110907250e+00 9.73821336578535e-04 
2.00380359314638e-01 2.08988311704656e+00 9.51016939588490e-04 
2.03305620034560e-01 2.08980769970228e+00 9.49988792425147e-04 
2.06230880754482e-01 2.08973223601662e+00 9.57004081539811e-04 
2.09156141474403e-01 2.08965674853876e+00 9.63831164700193e-04 
2.12081402194325e-01 2.08958125950744e+00 9.70470073135700e-04 
2.15006662914247e-01 2.08950579085098e+00 9.76920838086887e-04 
2.17931923634169e-01 2.08943036418742e+00 9.83183490762425e-04 
2.20857184354090e-01 2.08935500082454e+00 9.89258062343790e-04 
2.23782445074012e-01 2.08927972175994e+00 9.95144583943156e-04 
2.26707705793934e-01 2.08920454768112e+00 1.00084308658905e-03 
2.29632966513856e-01 2.08912949896556e+00 1.00635360122923e-03 
2.32558227233777e-01 2.08905459568078e+00 1.01167615867370e-03 
2.35483487953699e-01 2.08897985758442e+00 1.01681078958955e-03 
2.38408748673621e-01 2.08890530412434e+00 1.02175752450174e-03 
2.41334009393542e-01 2.08883095443868e+00 1.02651639374472e-03 
2.44259270113464e-01 2.08875682735594e+00 1.03108742744595e-03 
2.47184530833386e-01 2.08868294139504e+00 1.03547065554599e-03 
2.50109791553308e-01 2.08860931476547e+00 1.05317659157731e-03 
2.53035052273229e-01 2.08853215109464e+00 1.09624349690750e-03 
2.55960312993151e-01 2.08844788450003e+00 1.15123874151628e-03 
2.58885573713073e-01 2.08835613319484e+00 1.20719006284802e-03 
2.61810834432995e-01 2.08825650741702e+00 1.26409600608230e-03 
2.64736095152916e-01 2.08814860945132e+00 1.32195504003258e-03 
2.67661355872838e-01 2.08803203365298e+00 1.38076555233540e-03 
2.70586616592760e-01 2.08790636647285e+00 1.44052584488816e-03 
2.73511877312681e-01 2.08777118648412e+00 1.50123412947350e-03 
2.76437138032603e-01 2.08762606441070e+00 1.56288852352274e-03 
2.79362398752525e-01 2.08747056315731e+00 1.62548704600405e-03 
2.82287659472447e-01 2.08730423784135e+00 1.68902761338519e-03 
2.85212920192368e-01 2.08712663582656e+00 1.75350803563536e-03 
2.88138180912290e-01 2.08693729675859e+00 1.81892601228795e-03 
2.91063441632212e-01 2.08673575260258e+00 1.88527912851714e-03 
2.93988702352133e-01 2.08652152768266e+00 1.95256485124157e-03 
2.96913963072055e-01 2.08629413872363e+00 2.02078052523125e-03 
2.99839223791977e-01 2.08605309489471e+00 2.09359937374112e-03 
3.02764484511899e-01 2.08579617793140e+00 2.17550797559779e-03 
3.05689745231820e-01 2.08552053151115e+00 2.26289186704367e-03 
3.08615005951742e-01 2.08522535323753e+00 2.35148784989746e-03 
3.11540266671664e-01 2.08490982782818e+00 2.44129049091418e-03 
3.14465527391586e-01 2.08457312722995e+00 2.53229408602419e-03 
3.17390788111507e-01 2.08421441074017e+00 2.62449265155575e-03 
3.20316048831429e-01 2.08383282513432e+00 2.71787991549144e-03 
3.23241309551351e-01 2.08342750480029e+00 2.81244930876147e-03 
3.26166570271272e-01 2.08299757187938e+00 2.90819395659382e-03 
3.29091830991194e-01 2.08254213641422e+00 3.00510666988040e-03 
3.32017091711116e-01 2.08206029650392e+00 3.10317993655796e-03 
3.34942352431038e-01 2.08155113846645e+00 3.20240591302587e-03 
3.37867613150959e-01 2.08101373700858e+00 3.30277641559107e-03 
3.40792873870881e-01 2.08044715540353e+00 3.40428291191385e-03 
3.43718134590803e-01 2.07985044567650e+00 3.50691651248751e-03 
3.46643395310725e-01 2.07922264879829e+00 3.61066796214691e-03 
3.49568656030646e-01 2.07856279488715e+00 3.71770117918201e-03 
3.52493916750568e-01 2.07786833755357e+00 3.83195578087186e-03 
3.55419177470490e-01 2.07713523227053e+00 3.95123360792908e-03 
3.58344438190411e-01 2.07636221279791e+00 4.07175706333360e-03 
3.61269698910333e-01 2.07554799944250e+00 4.19351177433415e-03 
3.64194959630255e-01 2.07469129941612e+00 4.31648279172027e-03 
3.67120220350177e-01 2.07379080720871e+00 4.44065457774304e-03 
3.70045481070098e-01 2.07284520497641e+00 4.56601099419119e-03 
3.72970741790020e-01 2.07185316294503e+00 4.69253529062458e-03 
3.75896002509942e-01 2.07081333982923e+00 4.82021009276660e-03 
3.78821263229864e-01 2.06972438326753e+00 4.94901739109627e-03 
3.81746523949785e-01 2.06858493027358e+00 5.07893852963893e-03 
3.84671784669707e-01 2.06739360770374e+00 5.20995419496590e-03 
3.87597045389629e-01 2.06614903274137e+00 5.34204440543253e-03 
3.90522306109550e-01 2.06484981339798e+00 5.47518850066896e-03 
3.93447566829472e-01 2.06349454903148e+00 5.60936513133479e-03 
3.96372827549394e-01 2.06208183088164e+00 5.74455224915730e-03 
3.99298088269316e-01 2.06061024262312e+00 5.88004047967168e-03 
4.02223348989237e-01 2.05907905915827e+00 6.01386346101067e-03 
4.05148609709159e-01 2.05748891276268e+00 6.14670638135613e-03 
4.08073870429081e-01 2.05583848680280e+00 6.28041571925577e-03 
4.10999131149003e-01 2.05412646012885e+00 6.41496793168941e-03 
4.13924391868924e-01 2.05235150763674e+00 6.55033880756196e-03 
4.16849652588846e-01 2.05051230084532e+00 6.68650346125774e-03 
4.19774913308768e-01 2.04860750848918e+00 6.82343632656651e-03 
4.22700174028689e-01 2.04663579712703e+00 6.96111115100363e-03 
4.25625434748611e-01 2.04459583176558e+00 7.09950099052914e-03 
4.28550695468533e-01 2.04248627649905e+00 7.23857820470484e-03 
4.31475956188455e-01 2.04030579516427e+00 7.37831445228942e-03 
4.34401216908376e-01 2.03805305201129e+00 7.51868068728771e-03 
4.37326477628298e-01 2.03572671238956e+00 7.65964715549404e-03 
4.40251738348220e-01 2.03332544344955e+00 7.80118339153143e-03 
4.43176999068142e-01 2.03084791485967e+00 7.94325821639981e-03 
4.46102259788063e-01 2.02829279953860e+00 8.08583973557024e-03 
4.49027520507985e-01 2.02565877440266e+00 8.22889533762902e-03 
4.51952781227907e-01 2.02294452112819e+00 8.37239169350060e-03 
4.54878041947828e-01 2.02014872692885e+00 8.51629475625836e-03 
4.57803302667750e-01 2.01727008534746e+00 8.66056976153969e-03 
4.60728563387672e-01 2.01430729706239e+00 8.80518122860067e-03 
4.63653824107594e-01 2.01125907070800e+00 8.95009296200993e-03 
4.66579084827515e-01 2.00812412370921e+00 9.09526805400813e-03 
4.69504345547437e-01 2.00490118312953e+00 9.24066888755137e-03 
4.72429606267359e-01 2.00158898653259e+00 9.38625714005055e-03 
4.75354866987281e-01 1.99818628285652e+00 9.53199378782914e-03 
4.78280127707202e-01 1.99469183330112e+00 9.67783911131566e-03 
4.81205388427124e-01 1.99110441222717e+00 9.82375270098314e-03 
4.84130649147046e-01 1.98742280806759e+00 9.96969346405126e-03 
4.87055909866967e-01 1.98364582425003e+00 1.01156196319733e-02 
4.89981170586889e-01 1.97977228013030e+00 1.02614887687230e-02 
4.92906431306811e-01 1.97580101193623e+00 1.04072577798872e-02 
4.95831692026733e-01 1.97173087372148e+00 1.05528829225760e-02 
4.98756952746654e-01 1.96756073832850e+00 1.06982073119339e-02 
5.01682213466576e-01 1.96328967839184e+00 1.08418000477290e-02 
5.04607474186498e-01 1.95891885815851e+00 1.09837594709369e-02 
5.07532734906419e-01 1.95444726822449e+00 1.11253972051969e-02 
5.10457995626341e-01 1.94987392095506e+00 1.12666684324521e-02 
5.13383256346263e-01 1.94519785141689e+00 1.14075278003769e-02 
5.16308517066185e-01 1.94041811831488e+00 1.15479294373660e-02 
5.19233777786106e-01 1.93553380493300e+00 1.16878269683541e-02 
5.22159038506028e-01 1.93054402007841e+00 1.18271735314789e-02 
5.25084299225950e-01 1.92544789902815e+00 1.19659217955866e-02 
5.28009559945872e-01 1.92024460447750e+00 1.21040239785864e-02 
5.30934820665793e-01 1.91493332748942e+00 1.22414318666549e-02 
5.33860081385715e-01 1.90951328844403e+00 1.23780968342885e-02 
5.36785342105637e-01 1.90398373798742e+00 1.25139698652155e-02 
5.39710602825558e-01 1.89834395797891e+00 1.26490015741610e-02 
5.42635863545480e-01 1.89259326243577e+00 1.27831422294637e-02 
5.45561124265402e-01 1.88673099847462e+00 1.29163417765413e-02 
5.48486384985324e-01 1.88075654724842e+00 1.30485498622082e-02 
5.51411645705245e-01 1.87466932487822e+00 1.31797158598311e-02 
5.54336906425167e-01 1.86846878337858e+00 1.33097888953193e-02 
5.57262167145089e-01 1.86215441157579e+00 1.34387178739480e-02 
5.60187427865011e-01 1.85572573601769e+00 1.35664515079996e-02 
5.63112688584932e-01 1.84918232187417e+00 1.36929383452152e-02 
5.66037949304854e-01 1.84252377382731e+00 1.38181267980418e-02 
5.68963210024776e-01 1.83574973694998e+00 1.39419651736737e-02 
5.71888470744698e-01 1.82885989757189e+00 1.40644017048581e-02 
5.74813731464619e-01 1.82185398413197e+00 1.41853845814557e-02 
5.77738992184541e-01 1.81473176801592e+00 1.43048619827484e-02 
5.80664252904463e-01 1.80749306437789e+00 1.44227821104627e-02 
5.83589513624384e-01 1.80013773294502e+00 1.45390932224913e-02 
5.86514774344306e-01 1.79266567880382e+00 1.46537436672917e-02 
5.89440035064228e-01 1.78507685316717e+00 1.47666819189501e-02 
5.92365295784150e-01 1.77737125412073e+00 1.48778566128696e-02 
5.95290556504071e-01 1.76954892734774e+00 1.49872165820621e-02 
5.98215817223993e-01 1.76160996683081e+00 1.50947108940164e-02 
6.01141077943915e-01 1.75355451552978e+00 1.52002888881209e-02 
6.04066338663837e-01 1.74538276603431e+00 1.53039002136010e-02 
6.06991599383758e-01 1.73709496119006e+00 1.54054948679334e-02 
6.09916860103680e-01 1.72869139469735e+00 1.55050232357232e-02 
6.12842120823602e-01 1.72017241168103e+00 1.56024361279907e-02 
6.15767381543523e-01 1.71153840923060e+00 1.56976848218389e-02 
6.18692642263445e-01 1.70278983690920e+00 1.57907211004630e-02 
6.21617902983367e-01 1.69392719723050e+00 1.58814972934596e-02 
6.24543163703289e-01 1.68495104610233e+00 1.59699663174008e-02 
6.27468424423210e-01 1.67586199323595e+00 1.60560817166211e-02 
6.30393685143132e-01 1.66666070251984e+00 1.61397977041849e-02 
6.33318945863054e-01 1.65734789235705e+00 1.62210692029825e-02 
6.36244206582975e-01 1.64792433596487e+00 1.62998518869077e-02 
6.39169467302897e-01 1.63839086163607e+00 1.63761022220760e-02 
6.42094728022819e-01 1.62874835296047e+00 1.64497775080306e-02 
6.45019988742741e-01 1.61899774900605e+00 1.65208359188849e-02 
6.47945249462662e-01 1.60914004445855e+00 1.65892365443557e-02 
6.50870510182584e-01 1.59917628971880e+00 1.66549394306344e-02 
6.53795770902506e-01 1.58910759095668e+00 1.67179056210409e-02 
6.56721031622428e-01 1.57893511012121e+00 1.67780971964099e-02 
6.59646292342349e-01 1.56866006490567e+00 1.68354773151558e-02 
6.62571553062271e-01 1.55828372866723e+00 1.68900102529605e-02 
6.65496813782193e-01 1.54780743030022e+00 1.69416614420285e-02 
6.68422074502114e-01 1.53723255406253e+00 1.69903975098544e-02 
6.71347335222036e-01 1.52656053935446e+00 1.70361863174475e-02 
6.74272595941958e-01 1.51579288044941e+00 1.70789969969561e-02 
6.77197856661880e-01 1.50493112617601e+00 1.71187999886346e-02 
6.80123117381801e-01 1.49397687955120e+00 1.71555670770993e-02 
6.83048378101723e-01 1.48293179736382e+00 1.71892714268079e-02 
6.85973638821645e-01 1.47179758970840e+00 1.72198876167183e-02 
6.88898899541567e-01 1.46057601946889e+00 1.72473916740627e-02 
6.91824160261488e-01 1.44926890175210e+00 1.72717611071756e-02 
6.94749420981410e-01 1.43787810327064e+00 1.72929749373323e-02 
6.97674681701332e-01 1.42640554167540e+00 1.73110137295341e-02 
7.00599942421253e-01 1.41485318483733e+00 1.73255666182477e-02 
7.03525203141175e-01 1.40322390488285e+00 1.73365077887824e-02 
7.06450463861097e-01 1.39152011676897e+00 1.73441287096739e-02 
7.09375724581019e-01 1.37974392153302e+00 1.73485417897879e-02 
7.12300985300940e-01 1.36789746600175e+00 1.73497362274999e-02 
7.15226246020862e-01 1.35598294183156e+00 1.73477028968426e-02 
7.18151506740784e-01 1.34400258450066e+00 1.73424343686591e-02 
7.21076767460705e-01 1.33195867225392e+00 1.73339249303234e-02 
7.24002028180627e-01 1.31985352500078e+00 1.73221706039881e-02 
7.26927288900549e-01 1.30768950316687e+00 1.73071691633112e-02 
7.29852549620471e-01 1.29546900650001e+00 1.72889201486204e-02 
7.32777810340392e-01 1.28319447283137e+00 1.72674248804790e-02 
7.35703071060314e-01 1.27086837679252e+00 1.72426864716151e-02 
7.38628331780236e-01 1.25849322848935e+00 1.72147098371772e-02 
7.41553592500158e-01 1.24607157213376e+00 1.71835017032821e-02 
7.44478853220079e-01 1.23360598463423e+00 1.71490706138266e-02 
7.47404113940001e-01 1.22109907414620e+00 1.71114269355309e-02 
7.50329374659923e-01 1.20855347858362e+00 1.70705828611876e-02 
7.53254635379844e-01 1.19597186409280e+00 1.70265524110955e-02 
7.56179896099766e-01 1.18335692348986e+00 1.69793514326504e-02 
7.59105156819688e-01 1.17071137466318e+00 1.69289975980772e-02 
7.62030417539610e-01 1.15803795894231e+00 1.68755104002874e-02 
7.64955678259531e-01 1.14533943943471e+00 1.68189111468470e-02 
7.67880938979453e-01 1.13261859933206e+00 1.67592229520432e-02 
7.70806199699375e-01 1.11987824018757e+00 1.66964707270431e-02 
7.73731460419297e-01 1.10712118016613e+00 1.66306811681375e-02 
7.76656721139218e-01 1.09435025226892e+00 1.65618827430683e-02 
7.79581981859140e-01 1.08156830253426e+00 1.64901056754413e-02 
7.82507242579062e-01 1.06877818821662e+00 1.64153819272274e-02 
7.85432503298984e-01 1.05598277594562e+00 1.63377451793590e-02 
7.88357764018905e-01 1.04318493986690e+00 1.62572308104293e-02 
7.91283024738827e-01 1.03038755976696e+00 1.61738758735105e-02 
7.94208285458749e-01 1.01759351918382e+00 1.60877190711091e-02 
7.97133546178670e-01 1.00480570350569e+00 1.59988007282698e-02 
8.00058806898592e-01 9.92026998059682e-01 1.59071627638579e-02 
8.02984067618514e-01 9.79260286192656e-01 1.58128486600428e-02 
8.05909328338436e-01 9.66508447346367e-01 1.57159034300132e-02 
8.08834589058357e-01 9.53774355129095e-01 1.56163735839497e-02 
8.11759849778279e-01 9.41060875385928e-01 1.55143070932958e-02 
8.14685110498201e-01 9.28370864269915e-01 1.54097533533656e-02 
8.17610371218123e-01 9.15707166316303e-01 1.53027631443226e-02 
8.20535631938044e-01 9.03072612522105e-01 1.51933885905794e-02 
8.23460892657966e-01 8.90470018433216e-01 1.50816831186601e-02 
8.26386153377888e-01 8.77902182241350e-01 1.49677014135793e-02 
8.29311414097809e-01 8.65371882893006e-01 1.48514993737863e-02 
8.32236674817731e-01 8.52881878212722e-01 1.47331340647282e-02 
8.35161935537653e-01 8.40434903042843e-01 1.46126636710940e-02 
8.38087196257575e-01 8.28033667402003e-01 1.44901474477952e-02 
8.41012456977496e-01 8.15680854664540e-01 1.43656456697441e-02 
8.43937717697418e-01 8.03379119763007e-01 1.42392195804984e-02 
8.46862978417340e-01 7.91131087415948e-01 1.41109313398339e-02 
8.49788239137261e-01 7.78939350383046e-01 1.39808439703164e-02 
8.52713499857183e-01 7.66806467749761e-01 1.38490213029420e-02 
8.55638760577105e-01 7.54734963243501e-01 1.37155279219174e-02 
8.58564021297027e-01 7.42727323583345e-01 1.35804291086573e-02 
8.61489282016948e-01 7.30785996865303e-01 1.34437907850687e-02 
8.64414542736870e-01 7.18913390985044e-01 1.33056794562007e-02 
8.67339803456792e-01 7.07111872099956e-01 1.31661621523420e-02 
8.70265064176714e-01 6.95383763132377e-01 1.30253063706379e-02 
8.73190324896635e-01 6.83731342315771e-01 1.28831800163104e-02 
8.76115585616557e-01 6.72156841785533e-01 1.27398513435623e-02 
8.79040846336479e-01 6.60662446216093e-01 1.25953888962454e-02 
8.81966107056400e-01 6.49250291505887e-01 1.24498614483735e-02 
8.84891367776322e-01 6.37922463511697e-01 1.23033379445645e-02 
8.87816628496244e-01 6.26680996833811e-01 1.21558874404914e-02 
8.90741889216166e-01 6.15527873653344e-01 1.20075790434252e-02 
8.93667149936087e-01 6.04465022623031e-01 1.18584818529515e-02 
8.96592410656009e-01 5.93494317812670e-01 1.17086649019428e-02 
8.99517671375931e-01 5.82617577710349e-01 1.15581970978653e-02 
9.02442932095853e-01 5.71836564280505e-01 1.14071471645029e-02 
9.05368192815774e-01 5.61152982079748e-01 1.12555835841768e-02 
9.08293453535696e-01 5.50568477431329e-01 1.11035745405395e-02 
