Energy(eV)           EEDF(eV^-(3/2))      Anisotropy(eV^-(3/2))
1.02969012241353e-02 7.37548373858797e-02 3.58279880813972e-05 
3.08907036724059e-02 7.37502965003171e-02 9.00088544248616e-05 
5.14845061206765e-02 7.37437178390728e-02 1.74307935334307e-04 
7.20783085689471e-02 7.37363111217318e-02 2.62720869601741e-04 
9.26721110172177e-02 7.37295110475870e-02 3.49970808042377e-04 
1.13265913465488e-01 7.37241378245417e-02 4.38168139614840e-04 
1.33859715913759e-01 7.37197420005222e-02 5.22371512473912e-04 
1.54453518362030e-01 7.37161857361305e-02 6.02785977466074e-04 
1.75047320810300e-01 7.37134408084840e-02 6.82121627616367e-04 
1.95641123258571e-01 7.37111914742414e-02 7.57976702377549e-04 
2.16234925706841e-01 7.37092694880536e-02 8.33338225859671e-04 
2.36828728155112e-01 7.37072805138760e-02 9.01999852218254e-04 
2.57422530603383e-01 7.37052474088734e-02 9.71971382139743e-04 
2.78016333051653e-01 7.37025703807720e-02 1.03461960343650e-03 
2.98610135499924e-01 7.36990867433048e-02 1.09431455013632e-03 
3.19203937948194e-01 7.36946385993369e-02 1.15132100224263e-03 
3.39797740396465e-01 7.36890278001754e-02 1.20531710365886e-03 
3.60391542844736e-01 7.36821794310068e-02 1.25701174933493e-03 
3.80985345293006e-01 7.36738637300676e-02 1.30585619726860e-03 
4.01579147741277e-01 7.36640064407720e-02 1.35217367735536e-03 
4.22172950189547e-01 7.36525786794902e-02 1.39605952866586e-03 
4.42766752637818e-01 7.36395510758958e-02 1.43756472155211e-03 
4.63360555086089e-01 7.36248727172340e-02 1.47671328007684e-03 
4.83954357534359e-01 7.36084983539036e-02 1.51356286957768e-03 
5.04548159982630e-01 7.35903881699870e-02 1.54816037287224e-03 
5.25141962430900e-01 7.35705350812782e-02 1.58058832853927e-03 
5.45735764879171e-01 7.35489214287167e-02 1.61090615341469e-03 
5.66329567327442e-01 7.35255236815148e-02 1.63917471356417e-03 
5.86923369775712e-01 7.35003226432468e-02 1.66545920738065e-03 
6.07517172223983e-01 7.34733032310292e-02 1.68982462138269e-03 
6.28110974672254e-01 7.34444542582592e-02 1.71233556632291e-03 
6.48704777120524e-01 7.34137682213011e-02 1.73305613908746e-03 
6.69298579568795e-01 7.33812410904685e-02 1.75204980428990e-03 
6.89892382017065e-01 7.33468721056170e-02 1.76937926848714e-03 
7.10486184465336e-01 7.33106637097063e-02 1.78510418302954e-03 
7.31079986913607e-01 7.32726355597206e-02 1.79928860383738e-03 
7.51673789361877e-01 7.32327957512424e-02 1.81199164566957e-03 
7.72267591810148e-01 7.31911548476976e-02 1.82327230533329e-03 
7.92861394258418e-01 7.31477257044008e-02 1.83318848853693e-03 
8.13455196706689e-01 7.31025232983489e-02 1.84179696261545e-03 
8.34048999154960e-01 7.30555645638533e-02 1.84915331534923e-03 
8.54642801603230e-01 7.30068682340851e-02 1.85531191941823e-03 
8.75236604051501e-01 7.29564546885768e-02 1.86032590208625e-03 
8.95830406499771e-01 7.29043458067070e-02 1.86424711975751e-03 
9.16424208948042e-01 7.28505648271745e-02 1.86712613707692e-03 
9.37018011396313e-01 7.27951362134466e-02 1.86901221027295e-03 
9.57611813844583e-01 7.27380855251531e-02 1.86995327447441e-03 
9.78205616292854e-01 7.26794392953788e-02 1.86999593472719e-03 
9.98799418741124e-01 7.26192249137943e-02 1.86917550659116e-03 
1.01939322118940e+00 7.25576053603194e-02 1.86752252551611e-03 
1.03998702363767e+00 7.24947794702644e-02 1.86508725314338e-03 
1.06058082608594e+00 7.24307757382772e-02 1.86192473091122e-03 
1.08117462853421e+00 7.23656227669676e-02 1.85807491876785e-03 
1.10176843098248e+00 7.22993492033159e-02 1.85357645600465e-03 
1.12236223343075e+00 7.22319836792477e-02 1.84846667209554e-03 
1.14295603587902e+00 7.21635547562607e-02 1.84278159951513e-03 
1.16354983832729e+00 7.20940908739827e-02 1.83655598836968e-03 
1.18414364077556e+00 7.20236203025379e-02 1.82982332267937e-03 
1.20473744322383e+00 7.19521710985958e-02 1.82263171340148e-03 
1.22533124567210e+00 7.18796400474948e-02 1.81504810824276e-03 
1.24592504812037e+00 7.18060055451001e-02 1.80711793029318e-03 
1.26651885056864e+00 7.17312933274970e-02 1.79886811421743e-03 
1.28711265301691e+00 7.16555291446327e-02 1.79031657389002e-03 
1.30770645546518e+00 7.15787387024003e-02 1.78146944044797e-03 
1.32830025791345e+00 7.15011005125036e-02 1.77233386735560e-03 
1.34889406036172e+00 7.14226604377303e-02 1.76294605958520e-03 
1.36948786281000e+00 7.13434419722360e-02 1.75332636894420e-03 
1.39008166525827e+00 7.12634683104037e-02 1.74349196413866e-03 
1.41067546770654e+00 7.11827623139157e-02 1.73345968154247e-03 
1.43126927015481e+00 7.11013464819989e-02 1.72324598375722e-03 
1.45186307260308e+00 7.10192429246984e-02 1.71286692470257e-03 
1.47245687505135e+00 7.09364733390347e-02 1.70233812057449e-03 
1.49305067749962e+00 7.08530589879016e-02 1.69166966088645e-03 
1.51364447994789e+00 7.07690748180320e-02 1.68084624341063e-03 
1.53423828239616e+00 7.06848177224593e-02 1.66987211232177e-03 
1.55483208484443e+00 7.06003034711868e-02 1.65880396377654e-03 
1.57542588729270e+00 7.05155472928033e-02 1.64765497340471e-03 
1.59601968974097e+00 7.04305638750406e-02 1.63643779814295e-03 
1.61661349218924e+00 7.03453673667595e-02 1.62516457430718e-03 
1.63720729463751e+00 7.02599713812393e-02 1.61384691804857e-03 
1.65780109708578e+00 7.01743890006539e-02 1.60249592791737e-03 
1.67839489953405e+00 7.00886327816235e-02 1.59112218928706e-03 
1.69898870198233e+00 7.00027147617375e-02 1.57973578040556e-03 
1.71958250443060e+00 6.99166464669495e-02 1.56834627987062e-03 
1.74017630687887e+00 6.98304389197520e-02 1.55696277533627e-03 
1.76077010932714e+00 6.97441026480431e-02 1.54559387327840e-03 
1.78136391177541e+00 6.96576476946033e-02 1.53424770966709e-03 
1.80195771422368e+00 6.95710836271045e-02 1.52293196140292e-03 
1.82255151667195e+00 6.94844195485808e-02 1.51165385838112e-03 
1.84314531912022e+00 6.93976641082921e-02 1.50042019607653e-03 
1.86373912156849e+00 6.93108255129177e-02 1.48923734854042e-03 
1.88433292401676e+00 6.92239115380226e-02 1.47811128170840e-03 
1.90492672646503e+00 6.91369295397405e-02 1.46708702796805e-03 
1.92552052891330e+00 6.90496173703168e-02 1.45620112952059e-03 
1.94611433136157e+00 6.89618910224749e-02 1.44540931645424e-03 
1.96670813380984e+00 6.88737616323042e-02 1.43469656902532e-03 
1.98730193625811e+00 6.87852399021840e-02 1.42406699747575e-03 
2.00789573870638e+00 6.86963361091215e-02 1.41352438614402e-03 
2.02848954115465e+00 6.86070601134447e-02 1.40307220700140e-03 
2.04908334360293e+00 6.85174213677978e-02 1.39271363302029e-03 
2.06967714605120e+00 6.84274289263942e-02 1.38245155133894e-03 
2.09027094849947e+00 6.83370914544823e-02 1.37228690056392e-03 
2.11086475094774e+00 6.82464266845285e-02 1.36216179286946e-03 
2.13145855339601e+00 6.81557733197733e-02 1.35206194330729e-03 
2.15205235584428e+00 6.80651343688573e-02 1.34206539790544e-03 
2.17264615829255e+00 6.79745125702197e-02 1.33217382341576e-03 
2.19323996074082e+00 6.78839104035251e-02 1.32239603123835e-03 
2.21383376318909e+00 6.77932921779950e-02 1.31277196757871e-03 
2.23442756563736e+00 6.77024786037144e-02 1.30330461197902e-03 
2.25502136808563e+00 6.76114741113223e-02 1.29395112756535e-03 
2.27561517053390e+00 6.75202828575125e-02 1.28471197616755e-03 
2.29620897298217e+00 6.74289087630908e-02 1.27558729223376e-03 
2.31680277543044e+00 6.73373555194642e-02 1.26657711518789e-03 
2.33739657787871e+00 6.72456265952031e-02 1.25768139285452e-03 
2.35799038032698e+00 6.71537252426481e-02 1.24889998504102e-03 
2.37858418277525e+00 6.70616545045401e-02 1.24023266723817e-03 
2.39917798522353e+00 6.69694172206496e-02 1.23167913440573e-03 
2.41977178767180e+00 6.68770160343873e-02 1.22323900481606e-03 
2.44036559012007e+00 6.67844533993758e-02 1.21491182392686e-03 
2.46095939256834e+00 6.66917315859683e-02 1.20669706825986e-03 
2.48155319501661e+00 6.65988526876972e-02 1.19859414926617e-03 
2.50214699746488e+00 6.65058186276409e-02 1.19063275768604e-03 
2.52274079991315e+00 6.64125094811556e-02 1.18283738110228e-03 
2.54333460236142e+00 6.63188489691973e-02 1.17517580791672e-03 
2.56392840480969e+00 6.62248407578598e-02 1.16762441760613e-03 
2.58452220725796e+00 6.61304883125030e-02 1.16018233722712e-03 
2.60511600970623e+00 6.60357949041915e-02 1.15284865069221e-03 
2.62570981215450e+00 6.59407636160319e-02 1.14562240214084e-03 
2.64630361460277e+00 6.58453973494016e-02 1.13850259920195e-03 
2.66689741705104e+00 6.57496988300616e-02 1.13148821614856e-03 
2.68749121949931e+00 6.56536706141481e-02 1.12457819693736e-03 
2.70808502194758e+00 6.55573150940358e-02 1.11777145813078e-03 
2.72867882439586e+00 6.54606345040712e-02 1.11106689170182e-03 
2.74927262684413e+00 6.53636309261704e-02 1.10446336771848e-03 
2.76986642929240e+00 6.52663062952789e-02 1.09795973690941e-03 
2.79046023174067e+00 6.51686624046922e-02 1.09155379593132e-03 
2.81105403418894e+00 6.50707043585307e-02 1.08521689737461e-03 
2.83164783663721e+00 6.49725235496785e-02 1.07894617836456e-03 
2.85224163908548e+00 6.48741205158967e-02 1.07277002931694e-03 
2.87283544153375e+00 6.47754956967165e-02 1.06668724699135e-03 
2.89342924398202e+00 6.46766494376240e-02 1.06069662179754e-03 
2.91402304643029e+00 6.45775819941009e-02 1.05479693955781e-03 
2.93461684887856e+00 6.44782935355242e-02 1.04898698316296e-03 
2.95521065132683e+00 6.43787841489267e-02 1.04326553412662e-03 
2.97580445377510e+00 6.42790538426212e-02 1.03763137403983e-03 
2.99639825622337e+00 6.41791025496916e-02 1.03207348152281e-03 
3.01699205867164e+00 6.40789593010485e-02 1.02656939617878e-03 
3.03758586111991e+00 6.39786839524549e-02 1.02112672095516e-03 
3.05817966356818e+00 6.38782755007371e-02 1.01576594892662e-03 
3.07877346601646e+00 6.37777329003542e-02 1.01048588882186e-03 
3.09936726846473e+00 6.36770550658539e-02 1.00528535633528e-03 
3.11996107091300e+00 6.35762408742166e-02 1.00016317498242e-03 
3.14055487336127e+00 6.34752891670933e-02 9.95118176882925e-04 
3.16114867580954e+00 6.33741987529400e-02 9.90149203475009e-04 
3.18174247825781e+00 6.32729684090537e-02 9.85255106164772e-04 
3.20233628070608e+00 6.31715968835125e-02 9.80434756581534e-04 
3.22293008315435e+00 6.30700828950248e-02 9.75687081712717e-04 
3.24352388560262e+00 6.29684251274220e-02 9.71011035126792e-04 
3.26411768805089e+00 6.28666222351764e-02 9.66405524769355e-04 
3.28471149049916e+00 6.27646728529454e-02 9.61869434996253e-04 
3.30530529294743e+00 6.26625755967117e-02 9.57401666821097e-04 
3.32589909539570e+00 6.25603290648900e-02 9.53001137739964e-04 
3.34649289784397e+00 6.24579318393976e-02 9.48666781564132e-04 
3.36708670029224e+00 6.23553824866890e-02 9.44397548257352e-04 
3.38768050274051e+00 6.22526795587564e-02 9.40192403777276e-04 
3.40827430518879e+00 6.21498215940943e-02 9.36050329919414e-04 
3.42886810763706e+00 6.20468071186293e-02 9.31970324162652e-04 
3.44946191008533e+00 6.19436346466167e-02 9.27951399515338e-04 
3.47005571253360e+00 6.18403026815025e-02 9.23992584359805e-04 
3.49064951498187e+00 6.17368097167534e-02 9.20092922296445e-04 
3.51124331743014e+00 6.16331542366545e-02 9.16251471985989e-04 
3.53183711987841e+00 6.15293347170758e-02 9.12467307081468e-04 
3.55243092232668e+00 6.14253496261875e-02 9.08739516102867e-04 
3.57302472477495e+00 6.13211974251577e-02 9.05067202160821e-04 
3.59361852722322e+00 6.12168765688347e-02 9.01446144942487e-04 
3.61421232967149e+00 6.11123932439157e-02 8.97861075875256e-04 
3.63480613211976e+00 6.10077787266122e-02 8.94314044884118e-04 
3.65539993456803e+00 6.09030312422943e-02 8.90818836093399e-04 
3.67599373701630e+00 6.07981490186319e-02 8.87374627129101e-04 
3.69658753946457e+00 6.06931302860000e-02 8.83980609160479e-04 
3.71718134191284e+00 6.05879732778636e-02 8.80635986719544e-04 
3.73777514436112e+00 6.04826762311433e-02 8.77339977517357e-04 
3.75836894680939e+00 6.03772373865630e-02 8.74091812258256e-04 
3.77896274925766e+00 6.02716549889800e-02 8.70890734453090e-04 
3.79955655170593e+00 6.01659272876987e-02 8.67736000229507e-04 
3.82015035415420e+00 6.00600525367692e-02 8.64626878139707e-04 
3.84074415660247e+00 5.99540289952706e-02 8.61562648968899e-04 
3.86133795905074e+00 5.98478549275818e-02 8.58542605541084e-04 
3.88193176149901e+00 5.97415286036379e-02 8.55566052524701e-04 
3.90252556394728e+00 5.96350482991759e-02 8.52632306238117e-04 
3.92311936639555e+00 5.95284122959678e-02 8.49740694453506e-04 
3.94371316884382e+00 5.94216188820443e-02 8.46890556201550e-04 
3.96430697129209e+00 5.93146663519075e-02 8.44081241576024e-04 
3.98490077374036e+00 5.92075530067354e-02 8.41312111539229e-04 
4.00549457618863e+00 5.91002771545771e-02 8.38608756654696e-04 
4.02608837863690e+00 5.89927833628386e-02 8.35979141391735e-04 
4.04668218108517e+00 5.88850538337650e-02 8.33396258478390e-04 
4.06727598353344e+00 5.87770871470312e-02 8.30851401770601e-04 
4.08786978598172e+00 5.86688818822245e-02 8.28343975033717e-04 
4.10846358842999e+00 5.85604366192080e-02 8.25873391688283e-04 
4.12905739087826e+00 5.84517499384752e-02 8.23439074623407e-04 
4.14965119332653e+00 5.83428204214965e-02 8.21040456011480e-04 
4.17024499577480e+00 5.82336466510584e-02 8.18676977124435e-04 
4.19083879822307e+00 5.81242272115957e-02 8.16348088152542e-04 
4.21143260067134e+00 5.80145606895173e-02 8.14053248025656e-04 
4.23202640311961e+00 5.79046456735257e-02 8.11791924236108e-04 
4.25262020556788e+00 5.77944807549311e-02 8.09563592664142e-04 
4.27321400801615e+00 5.76840645279601e-02 8.07367737405896e-04 
4.29380781046442e+00 5.75733955900594e-02 8.05203850603542e-04 
4.31440161291269e+00 5.74624725421956e-02 8.03071432278113e-04 
4.33499541536096e+00 5.73512939891499e-02 8.00969990162292e-04 
4.35558921780923e+00 5.72398585398105e-02 7.98899039562313e-04 
4.37618302025750e+00 5.71281648074534e-02 7.96858103199476e-04 
4.39677682270577e+00 5.70162114100275e-02 7.94846711048525e-04 
4.41737062515404e+00 5.69039969704308e-02 7.92864400349741e-04 
4.43796442760232e+00 5.67915201167416e-02 7.90910715413661e-04 
4.45855823005059e+00 5.66787794825016e-02 7.88985207128264e-04 
4.47915203249886e+00 5.65657737070395e-02 7.87087432848207e-04 
4.49974583494713e+00 5.64525014357407e-02 7.85193020614312e-04 
4.52033963739540e+00 5.63390055765549e-02 7.83276070459764e-04 
4.54093343984367e+00 5.62253311409101e-02 7.81359950243458e-04 
4.56152724229194e+00 5.61114765948920e-02 7.79469617558429e-04 
4.58212104474021e+00 5.59974404178080e-02 7.77604673680887e-04 
4.60271484718848e+00 5.58832211022476e-02 7.75764725810354e-04 
4.62330864963675e+00 5.57688171541431e-02 7.73949386942658e-04 
4.64390245208502e+00 5.56542270928329e-02 7.72158275744346e-04 
4.66449625453329e+00 5.55394494511249e-02 7.70391016431116e-04 
4.68509005698156e+00 5.54244827753633e-02 7.68647238647906e-04 
4.70568385942983e+00 5.53093256254958e-02 7.66926577352952e-04 
4.72627766187810e+00 5.51939765751430e-02 7.65228672703725e-04 
4.74687146432637e+00 5.50784342116688e-02 7.63553169946255e-04 
4.76746526677465e+00 5.49626971362536e-02 7.61899719306073e-04 
4.78805906922292e+00 5.48467639639673e-02 7.60267975882409e-04 
4.80865287167119e+00 5.47306333238459e-02 7.58657599544434e-04 
4.82924667411946e+00 5.46143038589681e-02 7.57068254830251e-04 
4.84984047656773e+00 5.44977742265349e-02 7.55499610847869e-04 
4.87043427901600e+00 5.43810430979493e-02 7.53951341179270e-04 
4.89102808146427e+00 5.42641091588987e-02 7.52423123785289e-04 
4.91162188391254e+00 5.41469711094385e-02 7.50914640913641e-04 
4.93221568636081e+00 5.40296276640776e-02 7.49425579009241e-04 
4.95280948880908e+00 5.39120775518644e-02 7.47955628626148e-04 
4.97340329125735e+00 5.37943195164760e-02 7.46504484341840e-04 
4.99399709370562e+00 5.36763523163073e-02 7.45082652441477e-04 
5.01459089615389e+00 5.35581561482186e-02 7.43731014052733e-04 
5.03518469860216e+00 5.34396593375385e-02 7.42438624654607e-04 
5.05577850105043e+00 5.33208608007276e-02 7.41163943818316e-04 
5.07637230349870e+00 5.32017594662778e-02 7.39906671066954e-04 
5.09696610594697e+00 5.30823542749735e-02 7.38666509385404e-04 
5.11755990839525e+00 5.29626441801510e-02 7.37443165146575e-04 
5.13815371084352e+00 5.28426281479592e-02 7.36236348040934e-04 
5.15874751329179e+00 5.27223051576199e-02 7.35045771007667e-04 
5.17934131574006e+00 5.26016742016881e-02 7.33871150166806e-04 
5.19993511818833e+00 5.24807342863122e-02 7.32712204753968e-04 
5.22052892063660e+00 5.23594844314942e-02 7.31568657056153e-04 
5.24112272308487e+00 5.22379236713504e-02 7.30440232349072e-04 
5.26171652553314e+00 5.21160510543712e-02 7.29326658836010e-04 
5.28231032798141e+00 5.19938656436819e-02 7.28227667588179e-04 
5.30290413042968e+00 5.18713665173027e-02 7.27142992486627e-04 
5.32349793287795e+00 5.17485527684094e-02 7.26072370165319e-04 
5.34409173532622e+00 5.16254235055938e-02 7.25015539955861e-04 
5.36468553777449e+00 5.15019778531240e-02 7.23972243833179e-04 
5.38527934022276e+00 5.13782149512050e-02 7.22942226363067e-04 
5.40587314267103e+00 5.12541339562391e-02 7.21925234650739e-04 
5.42646694511931e+00 5.11297340410867e-02 7.20921018290423e-04 
5.44706074756758e+00 5.10050143953261e-02 7.19929329316717e-04 
5.46765455001585e+00 5.08799742255149e-02 7.18949922156743e-04 
5.48824835246412e+00 5.07546127554498e-02 7.17982553583353e-04 
5.50884215491239e+00 5.06289292264271e-02 7.17026982669943e-04 
5.52943595736066e+00 5.05029228975033e-02 7.16082970746300e-04 
5.55002975980893e+00 5.03765930457556e-02 7.15150281355216e-04 
5.57062356225720e+00 5.02499389665414e-02 7.14228680210568e-04 
5.59121736470547e+00 5.01229599737594e-02 7.13317935156270e-04 
5.61181116715374e+00 4.99956554001087e-02 7.12417816126122e-04 
5.63240496960201e+00 4.98680245973497e-02 7.11528095104999e-04 
5.65299877205028e+00 4.97400669365631e-02 7.10648546090946e-04 
5.67359257449855e+00 4.96117818084098e-02 7.09778945057836e-04 
5.69418637694682e+00 4.94831686233905e-02 7.08919069919449e-04 
5.71478017939509e+00 4.93542268121048e-02 7.08068700494506e-04 
5.73537398184336e+00 4.92249558255103e-02 7.07227618472339e-04 
5.75596778429163e+00 4.90953551351809e-02 7.06395607379380e-04 
5.77656158673990e+00 4.89654242335662e-02 7.05572452546896e-04 
5.79715538918818e+00 4.88351626342488e-02 7.04757941079042e-04 
5.81774919163645e+00 4.87045698722029e-02 7.03951861822274e-04 
5.83834299408472e+00 4.85736455040512e-02 7.03154005335516e-04 
5.85893679653299e+00 4.84423891083226e-02 7.02364163860649e-04 
5.87953059898126e+00 4.83108002857089e-02 7.01582131294101e-04 
5.90012440142953e+00 4.81788786593210e-02 7.00807703159588e-04 
5.92071820387780e+00 4.80466238749446e-02 7.00040676580879e-04 
5.94131200632607e+00 4.79140356012964e-02 6.99280850255424e-04 
5.96190580877434e+00 4.77811135302780e-02 6.98528024429398e-04 
5.98249961122261e+00 4.76478573772313e-02 6.97782000872744e-04 
6.00309341367088e+00 4.75142668811916e-02 6.97060500553550e-04 
6.02368721611915e+00 4.73803128279792e-02 6.96372919357632e-04 
6.04428101856742e+00 4.72459794251783e-02 6.95701067250801e-04 
6.06487482101569e+00 4.71112665047127e-02 6.95035077944435e-04 
6.08546862346396e+00 4.69761739244199e-02 6.94374751575480e-04 
6.10606242591223e+00 4.68407015683717e-02 6.93719889630905e-04 
6.12665622836051e+00 4.67048493471950e-02 6.93070294928064e-04 
6.14725003080878e+00 4.65686171983902e-02 6.92425771596001e-04 
6.16784383325705e+00 4.64320050866498e-02 6.91786125057410e-04 
6.18843763570532e+00 4.62950130041746e-02 6.91151162010735e-04 
6.20903143815359e+00 4.61576409709891e-02 6.90520690413095e-04 
6.22962524060186e+00 4.60198890352559e-02 6.89894519463889e-04 
6.25021904305013e+00 4.58817572735883e-02 6.89272459588655e-04 
6.27081284549840e+00 4.57432457913621e-02 6.88654322424026e-04 
6.29140664794667e+00 4.56043547230251e-02 6.88039920802736e-04 
6.31200045039494e+00 4.54650842324061e-02 6.87429068739154e-04 
6.33259425284321e+00 4.53254345130220e-02 6.86821581415781e-04 
6.35318805529148e+00 4.51854057883831e-02 6.86217275169742e-04 
6.37378185773975e+00 4.50449983122973e-02 6.85615967480149e-04 
6.39437566018802e+00 4.49042123691723e-02 6.85017476955935e-04 
