Energy(eV)           EEDF(eV^-(3/2))      Anisotropy(eV^-(3/2))
1.19199502795896e-02 7.08952144042874e-02 4.04472193449419e-05 
3.57598508387689e-02 7.08918957640137e-02 1.04238308693686e-04 
5.95997513979481e-02 7.08874216485875e-02 1.95257703079071e-04 
8.34396519571274e-02 7.08829930248841e-02 2.93380666292002e-04 
1.07279552516307e-01 7.08792482365915e-02 3.90984266147654e-04 
1.31119453075486e-01 7.08763628508366e-02 4.88973560572077e-04 
1.54959353634665e-01 7.08740555490070e-02 5.81713691777620e-04 
1.78799254193844e-01 7.08723448446147e-02 6.75161220225973e-04 
2.02639154753024e-01 7.08709679726465e-02 7.66975988975654e-04 
2.26479055312203e-01 7.08696965383079e-02 8.55531685798359e-04 
2.50318955871382e-01 7.08683741838130e-02 9.42319075599099e-04 
2.74158856430561e-01 7.08667410384164e-02 1.02503229775762e-03 
2.97998756989741e-01 7.08644847467807e-02 1.10224427519638e-03 
3.21838657548920e-01 7.08614678688647e-02 1.17716309422702e-03 
3.45678558108099e-01 7.08575121992609e-02 1.24932585931101e-03 
3.69518458667279e-01 7.08524968879374e-02 1.31930676378814e-03 
3.93358359226458e-01 7.08462514439406e-02 1.38666484161373e-03 
4.17198259785637e-01 7.08387023272665e-02 1.45170441786480e-03 
4.41038160344816e-01 7.08298133936709e-02 1.51456355601236e-03 
4.64878060903996e-01 7.08195136776715e-02 1.57516008902561e-03 
4.88717961463175e-01 7.08077366209042e-02 1.63352219266134e-03 
5.12557862022354e-01 7.07944207796941e-02 1.68965672072966e-03 
5.36397762581533e-01 7.07795393344252e-02 1.74366712285321e-03 
5.60237663140713e-01 7.07630401235887e-02 1.79556518212963e-03 
5.84077563699892e-01 7.07448747160259e-02 1.84539341233626e-03 
6.07917464259071e-01 7.07249983674543e-02 1.89319002308006e-03 
6.31757364818250e-01 7.07033699357421e-02 1.93899298213662e-03 
6.55597265377430e-01 7.06799517712241e-02 1.98284113121889e-03 
6.79437165936609e-01 7.06547096061761e-02 2.02477519831597e-03 
7.03277066495788e-01 7.06276124132444e-02 2.06483442039024e-03 
7.27116967054967e-01 7.05986405774089e-02 2.10306647332848e-03 
7.50956867614147e-01 7.05677742826076e-02 2.13951767700657e-03 
7.74796768173326e-01 7.05349918690440e-02 2.17423248837591e-03 
7.98636668732505e-01 7.05002744006807e-02 2.20725178941598e-03 
8.22476569291684e-01 7.04636056481425e-02 2.23861305287588e-03 
8.46316469850864e-01 7.04249720085131e-02 2.26835601483985e-03 
8.70156370410043e-01 7.03843623121682e-02 2.29652594518888e-03 
8.93996270969222e-01 7.03417676094115e-02 2.32316792506988e-03 
9.17836171528401e-01 7.02971811561893e-02 2.34832384551818e-03 
9.41676072087581e-01 7.02505983184731e-02 2.37203577896779e-03 
9.65515972646760e-01 7.02020164433871e-02 2.39434267215213e-03 
9.89355873205939e-01 7.01514348993814e-02 2.41527558982524e-03 
1.01319577376512e+00 7.00988712817610e-02 2.43482915838569e-03 
1.03703567432430e+00 7.00446181740421e-02 2.45308630709531e-03 
1.06087557488348e+00 6.99886852163216e-02 2.47006415087327e-03 
1.08471547544266e+00 6.99310833402369e-02 2.48579469106928e-03 
1.10855537600184e+00 6.98718246997747e-02 2.50031298920123e-03 
1.13239527656101e+00 6.98109224593730e-02 2.51365729298103e-03 
1.15623517712019e+00 6.97483907025217e-02 2.52586257596062e-03 
1.18007507767937e+00 6.96842445271869e-02 2.53699500880505e-03 
1.20391497823855e+00 6.96184982066445e-02 2.54717514072334e-03 
1.22775487879773e+00 6.95510373811237e-02 2.55647611594919e-03 
1.25159477935691e+00 6.94818098334745e-02 2.56491460873872e-03 
1.27543467991609e+00 6.94108287050848e-02 2.57249848087870e-03 
1.29927458047527e+00 6.93381083996123e-02 2.57923880051811e-03 
1.32311448103445e+00 6.92637550709028e-02 2.58516103970201e-03 
1.34695438159363e+00 6.91878878407531e-02 2.59029620188570e-03 
1.37079428215281e+00 6.91105240613018e-02 2.59466140731156e-03 
1.39463418271199e+00 6.90316819808721e-02 2.59827921184606e-03 
1.41847408327117e+00 6.89513799885060e-02 2.60118737198389e-03 
1.44231398383035e+00 6.88696363280151e-02 2.60341487226444e-03 
1.46615388438952e+00 6.87864697814541e-02 2.60500541288737e-03 
1.48999378494870e+00 6.87018979167058e-02 2.60603531448355e-03 
1.51383368550788e+00 6.86159678124736e-02 2.60653263967262e-03 
1.53767358606706e+00 6.85290555182640e-02 2.60650742117024e-03 
1.56151348662624e+00 6.84411777820722e-02 2.60597930542209e-03 
1.58535338718542e+00 6.83523519935510e-02 2.60494696915139e-03 
1.60919328774460e+00 6.82625961197038e-02 2.60341103568914e-03 
1.63303318830378e+00 6.81719286382450e-02 2.60137397261585e-03 
1.65687308886296e+00 6.80803684731843e-02 2.59883991349363e-03 
1.68071298942214e+00 6.79879349339118e-02 2.59581450916239e-03 
1.70455288998132e+00 6.78946476551924e-02 2.59230476367672e-03 
1.72839279054050e+00 6.78005265424375e-02 2.58831889881500e-03 
1.75223269109968e+00 6.77055917165360e-02 2.58386616015715e-03 
1.77607259165885e+00 6.76098634688825e-02 2.57895655599535e-03 
1.79991249221803e+00 6.75133622218404e-02 2.57360082891893e-03 
1.82375239277721e+00 6.74161084830576e-02 2.56781045005597e-03 
1.84759229333639e+00 6.73181228036219e-02 2.56159762638893e-03 
1.87143219389557e+00 6.72194257290903e-02 2.55497529629578e-03 
1.89527209445475e+00 6.71200377552387e-02 2.54796665981713e-03 
1.91911199501393e+00 6.70198348152620e-02 2.54061315476554e-03 
1.94295189557311e+00 6.69185045354916e-02 2.53292576919863e-03 
1.96679179613229e+00 6.68160699813624e-02 2.52488381008487e-03 
1.99063169669147e+00 6.67125542566502e-02 2.51650116261698e-03 
2.01447159725065e+00 6.66079804718953e-02 2.50779172952438e-03 
2.03831149780983e+00 6.65023717122041e-02 2.49876942336040e-03 
2.06215139836901e+00 6.63957510062294e-02 2.48944814528675e-03 
2.08599129892819e+00 6.62881412957423e-02 2.47984176266825e-03 
2.10983119948736e+00 6.61795654066300e-02 2.46993238759317e-03 
2.13367110004654e+00 6.60704701507587e-02 2.45971117445338e-03 
2.15751100060572e+00 6.59609152267092e-02 2.44923965212786e-03 
2.18135090116490e+00 6.58509191220153e-02 2.43853506596220e-03 
2.20519080172408e+00 6.57405000778752e-02 2.42762565804375e-03 
2.22903070228326e+00 6.56294573528491e-02 2.41654100591545e-03 
2.25287060284244e+00 6.55177248852544e-02 2.40527107571823e-03 
2.27671050340162e+00 6.54053226983056e-02 2.39381802651586e-03 
2.30055040396080e+00 6.52922704908537e-02 2.38219482560392e-03 
2.32439030451998e+00 6.51785875996882e-02 2.37041444782531e-03 
2.34823020507916e+00 6.50642929847877e-02 2.35848928863769e-03 
2.37207010563834e+00 6.49494052486189e-02 2.34643104642813e-03 
2.39591000619752e+00 6.48339426358290e-02 2.33424691200295e-03 
2.41974990675669e+00 6.47179234338996e-02 2.32193914258630e-03 
2.44358980731587e+00 6.46013660379829e-02 2.30951371150908e-03 
2.46742970787505e+00 6.44842885011334e-02 2.29697678309902e-03 
2.49126960843423e+00 6.43667089407394e-02 2.28433302201328e-03 
2.51510950899341e+00 6.42486071683413e-02 2.27161392565419e-03 
2.53894940955259e+00 6.41297537166394e-02 2.25883997880831e-03 
2.56278931011177e+00 6.40101689165969e-02 2.24598875264275e-03 
2.58662921067095e+00 6.38898725347850e-02 2.23307333177765e-03 
2.61046911123013e+00 6.37688837773352e-02 2.22010612842156e-03 
2.63430901178931e+00 6.36472212942432e-02 2.20709891025540e-03 
2.65814891234849e+00 6.35249031844298e-02 2.19406282442907e-03 
2.68198881290767e+00 6.34019470013782e-02 2.18100842205633e-03 
2.70582871346685e+00 6.32783697592937e-02 2.16794568004045e-03 
2.72966861402603e+00 6.31541879399617e-02 2.15488403289397e-03 
2.75350851458520e+00 6.30294174988092e-02 2.14183239520994e-03 
2.77734841514438e+00 6.29040738725192e-02 2.12879916196932e-03 
2.80118831570356e+00 6.27781719882965e-02 2.11578364226160e-03 
2.82502821626274e+00 6.26517997986623e-02 2.10278239584881e-03 
2.84886811682192e+00 6.25250302349162e-02 2.08981146920000e-03 
2.87270801738110e+00 6.23978752081139e-02 2.07688737204379e-03 
2.89654791794028e+00 6.22703461659397e-02 2.06401622705778e-03 
2.92038781849946e+00 6.21424541041721e-02 2.05120375102376e-03 
2.94422771905864e+00 6.20142095784295e-02 2.03845528650555e-03 
2.96806761961782e+00 6.18856227139208e-02 2.02577582077059e-03 
2.99190752017700e+00 6.17567032168856e-02 2.01316726068216e-03 
3.01574742073618e+00 6.16274808789153e-02 2.00061857704896e-03 
3.03958732129536e+00 6.14980708821056e-02 1.98813223503258e-03 
3.06342722185453e+00 6.13684802696202e-02 1.97573098327362e-03 
3.08726712241371e+00 6.12387157299066e-02 1.96341816935938e-03 
3.11110702297289e+00 6.11087836088083e-02 1.95119685930179e-03 
3.13494692353207e+00 6.09786899216246e-02 1.93906985038044e-03 
3.15878682409125e+00 6.08484403649026e-02 1.92703968520928e-03 
3.18262672465043e+00 6.07180403279333e-02 1.91510853986366e-03 
3.20646662520961e+00 6.05874949210577e-02 1.90327824899266e-03 
3.23030652576879e+00 6.04568089855429e-02 1.89155057833801e-03 
3.25414642632797e+00 6.03259870859148e-02 1.87992724592002e-03 
3.27798632688715e+00 6.01950335172277e-02 1.86840978951838e-03 
3.30182622744633e+00 6.00639523162201e-02 1.85699948689471e-03 
3.32566612800551e+00 5.99327472807508e-02 1.84569736956877e-03 
3.34950602856469e+00 5.98014219802914e-02 1.83450436120970e-03 
3.37334592912386e+00 5.96699797567677e-02 1.82342129763266e-03 
3.39718582968304e+00 5.95384237327055e-02 1.81244877743239e-03 
3.42102573024222e+00 5.94067568342032e-02 1.80158716579552e-03 
3.44486563080140e+00 5.92749817997019e-02 1.79083679266005e-03 
3.46870553136058e+00 5.91431011749483e-02 1.78019763030171e-03 
3.49254543191976e+00 5.90111173697292e-02 1.76966921511004e-03 
3.51638533247894e+00 5.88790326662902e-02 1.75925134844950e-03 
3.54022523303812e+00 5.87468491729629e-02 1.74894415829865e-03 
3.56406513359730e+00 5.86145688219409e-02 1.73874771998900e-03 
3.58790503415648e+00 5.84821933790072e-02 1.72866198278769e-03 
3.61174493471566e+00 5.83497244528205e-02 1.71867651823166e-03 
3.63558483527484e+00 5.82172182484019e-02 1.70878896808682e-03 
3.65942473583402e+00 5.80846759138289e-02 1.69901107944325e-03 
3.68326463639320e+00 5.79520980684643e-02 1.68934248363766e-03 
3.70710453695237e+00 5.78194852175487e-02 1.67978263960241e-03 
3.73094443751155e+00 5.76868377593777e-02 1.67033093117589e-03 
3.75478433807073e+00 5.75541559920761e-02 1.66098667376459e-03 
3.77862423862991e+00 5.74214401200621e-02 1.65174912025883e-03 
3.80246413918909e+00 5.72886902601906e-02 1.64261746701502e-03 
3.82630403974827e+00 5.71559064475422e-02 1.63359085958374e-03 
3.85014394030745e+00 5.70230886408999e-02 1.62466839780811e-03 
3.87398384086663e+00 5.68902367279415e-02 1.61584914058921e-03 
3.89782374142581e+00 5.67573505301464e-02 1.60713211047890e-03 
3.92166364198499e+00 5.66244298074196e-02 1.59851629795286e-03 
3.94550354254417e+00 5.64914742624581e-02 1.59000066537164e-03 
3.96934344310335e+00 5.63584835448620e-02 1.58158415033646e-03 
3.99318334366253e+00 5.62254572550674e-02 1.57327002633455e-03 
4.01702324422171e+00 5.60923753210777e-02 1.56507386036852e-03 
4.04086314478088e+00 5.59591657112603e-02 1.55699173891370e-03 
4.06470304534006e+00 5.58258287424083e-02 1.54900449536347e-03 
4.08854294589924e+00 5.56923646799695e-02 1.54111098456782e-03 
4.11238284645842e+00 5.55587737411641e-02 1.53331005376272e-03 
4.13622274701760e+00 5.54250560979904e-02 1.52560054462285e-03 
4.16006264757678e+00 5.52912118800221e-02 1.51798129527835e-03 
4.18390254813596e+00 5.51572411770874e-02 1.51045113746804e-03 
4.20774244869514e+00 5.50231440425903e-02 1.50300889884056e-03 
4.23158234925432e+00 5.48889204958120e-02 1.49565341379083e-03 
4.25542224981350e+00 5.47545705233081e-02 1.48838352467917e-03 
4.27926215037268e+00 5.46200940809541e-02 1.48119807858652e-03 
4.30310205093186e+00 5.44854910958907e-02 1.47409592545699e-03 
4.32694195149104e+00 5.43507614688840e-02 1.46707591923623e-03 
4.35078185205021e+00 5.42159050760458e-02 1.46013692365786e-03 
4.37462175260939e+00 5.40809217701047e-02 1.45327781304952e-03 
4.39846165316857e+00 5.39458113819249e-02 1.44649746977915e-03 
4.42230155372775e+00 5.38105737221985e-02 1.43979478455413e-03 
4.44614145428693e+00 5.36752085828668e-02 1.43316865836274e-03 
4.46998135484611e+00 5.35397157384018e-02 1.42661799749873e-03 
4.49382125540529e+00 5.34040949481189e-02 1.42013456992620e-03 
4.51766115596447e+00 5.32683728994389e-02 1.41369412218390e-03 
4.54150105652365e+00 5.31326337160756e-02 1.40730144649616e-03 
4.56534095708283e+00 5.29968762471888e-02 1.40097982927339e-03 
4.58918085764201e+00 5.28610993452401e-02 1.39472825038099e-03 
4.61302075820119e+00 5.27253018667140e-02 1.38854570146519e-03 
4.63686065876037e+00 5.25894826727544e-02 1.38243118621392e-03 
4.66070055931954e+00 5.24536406297818e-02 1.37638372055279e-03 
4.68454045987872e+00 5.23177746100363e-02 1.37040233282886e-03 
4.70838036043790e+00 5.21818834921042e-02 1.36448606393639e-03 
4.73222026099708e+00 5.20459661613801e-02 1.35863396743853e-03 
4.75606016155626e+00 5.19100215105124e-02 1.35284510964654e-03 
4.77990006211544e+00 5.17740484397931e-02 1.34711856968204e-03 
4.80373996267462e+00 5.16380458575333e-02 1.34145343949497e-03 
4.82757986323380e+00 5.15020126803918e-02 1.33584882386941e-03 
4.85141976379298e+00 5.13659478336922e-02 1.33030384039925e-03 
4.87525966435216e+00 5.12298502516986e-02 1.32481761945800e-03 
4.89909956491134e+00 5.10937188778814e-02 1.31938930414278e-03 
4.92293946547052e+00 5.09575526651475e-02 1.31401805021209e-03 
4.94677936602970e+00 5.08213505760615e-02 1.30870302599490e-03 
4.97061926658888e+00 5.06851115830382e-02 1.30344341230806e-03 
4.99445916714805e+00 5.05488346685249e-02 1.29824684942029e-03 
5.01829906770723e+00 5.04124910718181e-02 1.29313619807164e-03 
5.04213896826641e+00 5.02760042606711e-02 1.28810302067691e-03 
5.06597886882559e+00 5.01393739311669e-02 1.28312215981807e-03 
5.08981876938477e+00 5.00025997792681e-02 1.27819284753863e-03 
5.11365866994395e+00 4.98656815011689e-02 1.27331432758849e-03 
5.13749857050313e+00 4.97286187936404e-02 1.26848585527032e-03 
5.16133847106231e+00 4.95914113543549e-02 1.26370669728860e-03 
5.18517837162149e+00 4.94540588822029e-02 1.25897613149477e-03 
5.20901827218067e+00 4.93165610776138e-02 1.25429344672181e-03 
5.23285817273985e+00 4.91789176428506e-02 1.24965794281891e-03 
5.25669807329903e+00 4.90411282822655e-02 1.24506893050232e-03 
5.28053797385821e+00 4.89031927025699e-02 1.24052573108209e-03 
5.30437787441739e+00 4.87651106130943e-02 1.23602767625595e-03 
5.32821777497656e+00 4.86268817260485e-02 1.23157410794227e-03 
5.35205767553574e+00 4.84885057567645e-02 1.22716437817683e-03 
5.37589757609492e+00 4.83499824239272e-02 1.22279784894421e-03 
5.39973747665410e+00 4.82113114498018e-02 1.21847389196723e-03 
5.42357737721328e+00 4.80724925604607e-02 1.21419188852781e-03 
5.44741727777246e+00 4.79335254860011e-02 1.20995122932423e-03 
5.47125717833164e+00 4.77944099607541e-02 1.20575131428752e-03 
5.49509707889082e+00 4.76551457234961e-02 1.20159155239343e-03 
5.51893697945000e+00 4.75157325176525e-02 1.19747136156322e-03 
5.54277688000918e+00 4.73761700914853e-02 1.19339016852321e-03 
5.56661678056836e+00 4.72364581982829e-02 1.18934740861213e-03 
5.59045668112754e+00 4.70965965965466e-02 1.18534252562023e-03 
5.61429658168672e+00 4.69565850501731e-02 1.18137497163365e-03 
5.63813648224590e+00 4.68164233286344e-02 1.17744420688097e-03 
5.66197638280507e+00 4.66761112071529e-02 1.17354969958143e-03 
5.68581628336425e+00 4.65356484668748e-02 1.16969092579649e-03 
5.70965618392343e+00 4.63950348950398e-02 1.16586736928249e-03 
5.73349608448261e+00 4.62542702851482e-02 1.16207852134662e-03 
5.75733598504179e+00 4.61133544371255e-02 1.15832388070527e-03 
5.78117588560097e+00 4.59722871574848e-02 1.15460295334442e-03 
5.80501578616015e+00 4.58310682594864e-02 1.15091525238243e-03 
5.82885568671933e+00 4.56896975632956e-02 1.14726029793577e-03 
5.85269558727851e+00 4.55481748961386e-02 1.14363761698642e-03 
5.87653548783769e+00 4.54065000924564e-02 1.14004674325224e-03 
5.90037538839687e+00 4.52646729940567e-02 1.13648721705978e-03 
5.92421528895605e+00 4.51226934502642e-02 1.13295858521915e-03 
5.94805518951522e+00 4.49805613180700e-02 1.12946040090116e-03 
5.97189509007440e+00 4.48382764622782e-02 1.12599222351790e-03 
5.99573499063358e+00 4.46958387556525e-02 1.12255906155206e-03 
6.01957489119276e+00 4.45532332186697e-02 1.11917213443805e-03 
6.04341479175194e+00 4.44104284640873e-02 1.11582568563318e-03 
6.06725469231112e+00 4.42674246123248e-02 1.11250746077689e-03 
6.09109459287030e+00 4.41242217900256e-02 1.10921704325148e-03 
6.11493449342948e+00 4.39808201302728e-02 1.10595402198991e-03 
6.13877439398866e+00 4.38372197728021e-02 1.10271799137201e-03 
6.16261429454784e+00 4.36934208642140e-02 1.09950855112290e-03 
6.18645419510702e+00 4.35494235581826e-02 1.09632530621165e-03 
6.21029409566620e+00 4.34052280156641e-02 1.09316786675408e-03 
6.23413399622538e+00 4.32608344051027e-02 1.09003584791964e-03 
6.25797389678456e+00 4.31162429026339e-02 1.08692886983715e-03 
6.28181379734373e+00 4.29714536922877e-02 1.08384655750223e-03 
6.30565369790291e+00 4.28264669661890e-02 1.08078854068756e-03 
6.32949359846209e+00 4.26812829247572e-02 1.07775445385535e-03 
6.35333349902127e+00 4.25359017769036e-02 1.07474393607175e-03 
6.37717339958045e+00 4.23903237402278e-02 1.07175663092311e-03 
6.40101330013963e+00 4.22445490412120e-02 1.06879218643358e-03 
6.42485320069881e+00 4.20985779154146e-02 1.06585025498457e-03 
6.44869310125799e+00 4.19524106076620e-02 1.06293049323663e-03 
6.47253300181717e+00 4.18060473722388e-02 1.06003256205295e-03 
6.49637290237635e+00 4.16594884730767e-02 1.05715612642397e-03 
6.52021280293553e+00 4.15127341839422e-02 1.05430085539293e-03 
6.54405270349471e+00 4.13657847886235e-02 1.05146642198437e-03 
6.56789260405389e+00 4.12186405811149e-02 1.04865250313391e-03 
6.59173250461307e+00 4.10713018658011e-02 1.04585877961970e-03 
6.61557240517224e+00 4.09237689576395e-02 1.04308493599507e-03 
6.63941230573142e+00 4.07760421823416e-02 1.04033066052257e-03 
6.66325220629060e+00 4.06281218765526e-02 1.03759564510992e-03 
6.68709210684978e+00 4.04800083880311e-02 1.03487958524683e-03 
6.71093200740896e+00 4.03317020758257e-02 1.03218217994369e-03 
6.73477190796814e+00 4.01832033104522e-02 1.02950313167117e-03 
6.75861180852732e+00 4.00345124740684e-02 1.02684214630136e-03 
6.78245170908650e+00 3.98856299606486e-02 1.02419893305035e-03 
6.80629160964568e+00 3.97365561761560e-02 1.02157320442193e-03 
6.83013151020486e+00 3.95872915387148e-02 1.01896467615258e-03 
6.85397141076404e+00 3.94378364787808e-02 1.01637306715766e-03 
6.87781131132322e+00 3.92881914393107e-02 1.01379809947865e-03 
6.90165121188240e+00 3.91383568759304e-02 1.01123949823169e-03 
6.92549111244157e+00 3.89883332571025e-02 1.00869699155724e-03 
6.94933101300075e+00 3.88381210642921e-02 1.00617031057100e-03 
6.97317091355993e+00 3.86877207921316e-02 1.00365918931571e-03 
6.99701081411911e+00 3.85371329485850e-02 1.00120181073307e-03 
7.02085071467829e+00 3.83862623336069e-02 9.98862418659358e-04 
7.04469061523747e+00 3.82349503030636e-02 9.96601947964458e-04 
7.06853051579665e+00 3.80831983703081e-02 9.94354759887458e-04 
7.09237041635583e+00 3.79310080620906e-02 9.92120561816353e-04 
7.11621031691501e+00 3.77783809190842e-02 9.89899063698709e-04 
7.14005021747419e+00 3.76253184964073e-02 9.87689978003728e-04 
7.16389011803337e+00 3.74718223641406e-02 9.85493019685404e-04 
7.18773001859255e+00 3.73178941078409e-02 9.83307906146775e-04 
7.21156991915173e+00 3.71635353290506e-02 9.81134357204814e-04 
7.23540981971091e+00 3.70087476458025e-02 9.78972095056399e-04 
7.25924972027008e+00 3.68535326931217e-02 9.76820844245384e-04 
7.28308962082926e+00 3.66978921235222e-02 9.74680331630468e-04 
7.30692952138844e+00 3.65418276074999e-02 9.72550286353673e-04 
7.33076942194762e+00 3.63853408340219e-02 9.70430439809970e-04 
7.35460932250680e+00 3.62284335110114e-02 9.68320525617901e-04 
7.37844922306598e+00 3.60711073658285e-02 9.66220279590448e-04 
7.40228912362516e+00 3.59133641457470e-02 9.64129439707211e-04 
