Energy(eV)           EEDF(eV^-(3/2))      Anisotropy(eV^-(3/2))
7.38727721894531e-04 1.84632256897840e+02 1.52752547161748e-01 
2.21618316568359e-03 1.76315216508240e+02 1.64082302818650e-01 
3.69363860947266e-03 1.67707895737419e+02 1.78358639241431e-01 
5.17109405326172e-03 1.59280637222427e+02 1.86436885631272e-01 
6.64854949705078e-03 1.51185624930554e+02 1.93882316633603e-01 
8.12600494083985e-03 1.43468130022758e+02 1.99851364620066e-01 
9.60346038462891e-03 1.36122183459070e+02 2.05199057488500e-01 
1.10809158284180e-02 1.29160157442391e+02 2.09062963977551e-01 
1.25583712722070e-02 1.22543918491478e+02 2.10469170122760e-01 
1.40358267159961e-02 1.16268000125655e+02 2.12291015744642e-01 
1.55132821597852e-02 1.10324332977585e+02 2.12555854187629e-01 
1.69907376035742e-02 1.04681334625849e+02 2.10618366173667e-01 
1.84681930473633e-02 9.93253640321235e+01 2.08497152046572e-01 
1.99456484911523e-02 9.42461720083114e+01 2.06163892011804e-01 
2.14231039349414e-02 8.94290039336764e+01 2.03075436558371e-01 
2.29005593787305e-02 8.48586107912846e+01 1.99658234229142e-01 
2.43780148225195e-02 8.05247792063625e+01 1.96455261075693e-01 
2.58554702663086e-02 7.64173800491172e+01 1.93484918860517e-01 
2.73329257100977e-02 7.25264865961137e+01 1.90763526908760e-01 
2.88103811538867e-02 6.88424590116830e+01 1.88306361507487e-01 
3.02878365976758e-02 6.53560059621808e+01 1.85185697617790e-01 
3.17652920414649e-02 6.20506570417934e+01 1.80939445897713e-01 
3.32427474852539e-02 5.89148542740588e+01 1.76480914326568e-01 
3.47202029290430e-02 5.59407813135385e+01 1.72219924193048e-01 
3.61976583728320e-02 5.31208897310937e+01 1.68157368065364e-01 
3.76751138166211e-02 5.04479134814952e+01 1.64293513240655e-01 
3.91525692604102e-02 4.79148777398839e+01 1.60628221482684e-01 
4.06300247041992e-02 4.55151035644620e+01 1.56608856821010e-01 
4.21074801479883e-02 4.32381381328742e+01 1.52186944638616e-01 
4.35849355917774e-02 4.10778120420412e+01 1.47904941537561e-01 
4.50623910355664e-02 3.90285361017779e+01 1.43802571337362e-01 
4.65398464793555e-02 3.70849571353966e+01 1.39876343679221e-01 
4.80173019231445e-02 3.52419551415676e+01 1.36122659520528e-01 
4.94947573669336e-02 3.34946392915349e+01 1.32524000858084e-01 
5.09722128107227e-02 3.18382443060803e+01 1.29003303786016e-01 
5.24496682545117e-02 3.02678043671111e+01 1.25571008772115e-01 
5.39271236983008e-02 2.87791172307583e+01 1.22296013243736e-01 
5.54045791420899e-02 2.73681808851107e+01 1.19174550480703e-01 
5.68820345858789e-02 2.60311875478947e+01 1.16202953897156e-01 
5.83594900296680e-02 2.47645176037748e+01 1.13377672999497e-01 
5.98369454734570e-02 2.35647335812438e+01 1.10695283487426e-01 
6.13144009172461e-02 2.24285742551419e+01 1.08152491366132e-01 
6.27918563610352e-02 2.13529489507478e+01 1.05746130541528e-01 
6.42693118048242e-02 2.03349321186092e+01 1.03473152898872e-01 
6.57467672486133e-02 1.93717582454595e+01 1.01330609276865e-01 
6.72242226924024e-02 1.84608171654602e+01 9.93156189903534e-02 
6.87016781361914e-02 1.75996498374455e+01 9.74253245526271e-02 
7.01791335799805e-02 1.67859446577306e+01 9.53515397750525e-02 
7.16565890237695e-02 1.60148609619490e+01 9.29036403854032e-02 
7.31340444675586e-02 1.52827642224483e+01 9.03837471762588e-02 
7.46114999113477e-02 1.45878025413943e+01 8.79705114317982e-02 
7.60889553551367e-02 1.39282144091486e+01 8.56604465813655e-02 
7.75664107989258e-02 1.33023253946525e+01 8.34501380439983e-02 
7.90438662427149e-02 1.27085449483181e+01 8.13362364737340e-02 
8.05213216865039e-02 1.21453633292738e+01 7.93154482546757e-02 
8.19987771302930e-02 1.16113486673109e+01 7.73845228850795e-02 
8.34762325740821e-02 1.11051441686985e+01 7.55402367586579e-02 
8.49536880178711e-02 1.06254654741143e+01 7.37793726944052e-02 
8.64311434616602e-02 1.01710981762071e+01 7.20986943764105e-02 
8.79085989054492e-02 9.74089550368765e+00 7.04949146337810e-02 
8.93860543492383e-02 9.33377617823513e+00 6.89646562078940e-02 
9.08635097930274e-02 8.94872244979102e+00 6.75044033080655e-02 
9.23409652368164e-02 8.58477831480998e+00 6.61104418342251e-02 
9.38184206806055e-02 8.24104792052788e+00 6.47787856323684e-02 
9.52958761243946e-02 7.91669415595798e+00 6.35050855318203e-02 
9.67733315681836e-02 7.61093742669228e+00 6.22845171821179e-02 
9.82507870119727e-02 7.32305460503422e+00 6.11116428586860e-02 
9.97282424557617e-02 7.05237813865138e+00 5.99189591479062e-02 
1.01205697899551e-01 6.79708257396874e+00 5.85798988888325e-02 
1.02683153343340e-01 6.55395235474803e+00 5.71662532724800e-02 
1.04160608787129e-01 6.32248502916873e+00 5.58016525626706e-02 
1.05638064230918e-01 6.10220238938226e+00 5.44839036254451e-02 
1.07115519674707e-01 5.89264965724959e+00 5.32107859949078e-02 
1.08592975118496e-01 5.69339469776126e+00 5.19800407966695e-02 
1.10070430562285e-01 5.50402725937814e+00 5.07893580692757e-02 
1.11547886006074e-01 5.32415823998271e+00 4.96363623213834e-02 
1.13025341449863e-01 5.15341897651028e+00 4.85185961473853e-02 
1.14502796893652e-01 4.99146055561631e+00 4.74335017122335e-02 
1.15980252337441e-01 4.83795314190276e+00 4.63783999093552e-02 
1.17457707781231e-01 4.69258531924426e+00 4.53504669965282e-02 
1.18935163225020e-01 4.55506343959204e+00 4.43467085270681e-02 
1.20412618668809e-01 4.42511097225394e+00 4.33604079843407e-02 
1.21890074112598e-01 4.30108114962621e+00 4.23984667197843e-02 
1.23367529556387e-01 4.18237339347086e+00 4.14638716834207e-02 
1.24844985000176e-01 4.06879962314031e+00 4.05544765317340e-02 
1.26322440443965e-01 3.96017970250270e+00 3.96690992503956e-02 
1.27799895887754e-01 3.85634118992282e+00 3.88065415657314e-02 
1.29277351331543e-01 3.75711909120513e+00 3.79655858887816e-02 
1.30754806775332e-01 3.66235561517915e+00 3.71449919604699e-02 
1.32232262219121e-01 3.57189993147973e+00 3.63434931985492e-02 
1.33709717662910e-01 3.48560792994157e+00 3.55597927496429e-02 
1.35187173106699e-01 3.40334198088772e+00 3.47925592534835e-02 
1.36664628550488e-01 3.32497069544455e+00 3.40404223315926e-02 
1.38142083994277e-01 3.25036868485973e+00 3.33019678193693e-02 
1.39619539438066e-01 3.17941631763538e+00 3.25757327692056e-02 
1.41096994881856e-01 3.11199947311452e+00 3.18602002631072e-02 
1.42574450325645e-01 3.04800928997667e+00 3.11537940867430e-02 
1.44051905769434e-01 2.98734190790917e+00 3.04548733332796e-02 
1.45529361213223e-01 2.92989820052520e+00 2.97617270251497e-02 
1.47006816657012e-01 2.87558349740365e+00 2.90725688654694e-02 
1.48484272100801e-01 2.82430729293165e+00 2.83855322585616e-02 
1.49961727544590e-01 2.77598293944713e+00 2.77343295457279e-02 
1.51439182988379e-01 2.73009706469896e+00 2.71648275279522e-02 
1.52916638432168e-01 2.68610939683002e+00 2.66447554821799e-02 
1.54394093875957e-01 2.64397047683647e+00 2.61304286278900e-02 
1.55871549319746e-01 2.60363252739994e+00 2.56212036320938e-02 
1.57349004763535e-01 2.56504938193503e+00 2.51164199928201e-02 
1.58826460207324e-01 2.52817641142115e+00 2.46153993906193e-02 
1.60303915651113e-01 2.49297044882043e+00 2.41174450810951e-02 
1.61781371094902e-01 2.45938971086713e+00 2.36218413471581e-02 
1.63258826538691e-01 2.42739371700010e+00 2.31278530320500e-02 
1.64736281982481e-01 2.39694320519874e+00 2.26347251767428e-02 
1.66213737426270e-01 2.36800004447503e+00 2.21416827880558e-02 
1.67691192870059e-01 2.34052714377057e+00 2.16479307667522e-02 
1.69168648313848e-01 2.31448835700837e+00 2.11526540279405e-02 
1.70646103757637e-01 2.28984838405618e+00 2.07439100863909e-02 
1.72123559201426e-01 2.26602847390620e+00 2.04345507401658e-02 
1.73601014645215e-01 2.24297708501492e+00 2.01329339390348e-02 
1.75078470089004e-01 2.22068017037184e+00 1.98326375923607e-02 
1.76555925532793e-01 2.19912395333782e+00 1.95334917269632e-02 
1.78033380976582e-01 2.17829491926410e+00 1.92353213266206e-02 
1.79510836420371e-01 2.15817980653915e+00 1.89379463798851e-02 
1.80988291864160e-01 2.13876559706687e+00 1.86411819309047e-02 
1.82465747307949e-01 2.12003950617838e+00 1.83448381348862e-02 
1.83943202751738e-01 2.10198897197839e+00 1.80487203199161e-02 
1.85420658195527e-01 2.08460164412645e+00 1.77526290569631e-02 
1.86898113639316e-01 2.06786537205232e+00 1.74563602399710e-02 
1.88375569083106e-01 2.05176819260461e+00 1.71597051780671e-02 
1.89853024526895e-01 2.03629831713113e+00 1.68624507020185e-02 
1.91330479970684e-01 2.02144411798964e+00 1.65643792871538e-02 
1.92807935414473e-01 2.00719411448783e+00 1.62652691951075e-02 
1.94285390858262e-01 1.99353695825182e+00 1.59648946368330e-02 
1.95762846302051e-01 1.98046141802336e+00 1.56630259594404e-02 
1.97240301745840e-01 1.96795636388708e+00 1.53594298595323e-02 
1.98717757189629e-01 1.95601075093050e+00 1.50538696257996e-02 
2.00195212633418e-01 1.94461360234156e+00 1.48332101586320e-02 
2.01672668077207e-01 1.93345342091542e+00 1.47529291825834e-02 
2.03150123520996e-01 1.92235316938998e+00 1.47240713380959e-02 
2.04627578964785e-01 1.91131331450500e+00 1.46944040470648e-02 
2.06105034408574e-01 1.90033430146078e+00 1.46639473944091e-02 
2.07582489852363e-01 1.88941655434216e+00 1.46327211795466e-02 
2.09059945296152e-01 1.87856047653833e+00 1.46007449169629e-02 
2.10537400739941e-01 1.86776645115847e+00 1.45680378368862e-02 
2.12014856183731e-01 1.85703484144321e+00 1.45346188860653e-02 
2.13492311627520e-01 1.84636599117170e+00 1.45005067286412e-02 
2.14969767071309e-01 1.83576022506438e+00 1.44657197471140e-02 
2.16447222515098e-01 1.82521784918128e+00 1.44302760433985e-02 
2.17924677958887e-01 1.81473915131587e+00 1.43941934399681e-02 
2.19402133402676e-01 1.80432440138445e+00 1.43574894810786e-02 
2.20879588846465e-01 1.79397385181094e+00 1.43201814340691e-02 
2.22357044290254e-01 1.78368773790705e+00 1.42822862907408e-02 
2.23834499734043e-01 1.77346627824795e+00 1.42438207688053e-02 
2.25311955177832e-01 1.76330967504320e+00 1.42048013134032e-02 
2.26789410621621e-01 1.75321811450305e+00 1.41652440986864e-02 
2.28266866065410e-01 1.74319176720004e+00 1.41251650294633e-02 
2.29744321509199e-01 1.73323078842591e+00 1.40845797428993e-02 
2.31221776952988e-01 1.72333531854377e+00 1.40435036102784e-02 
2.32699232396777e-01 1.71350548333557e+00 1.40019517388173e-02 
2.34176687840566e-01 1.70374139434480e+00 1.39599389735223e-02 
2.35654143284356e-01 1.69404314921447e+00 1.39174798991023e-02 
2.37131598728145e-01 1.68441083202031e+00 1.38745888419233e-02 
2.38609054171934e-01 1.67484451359929e+00 1.38312798720017e-02 
2.40086509615723e-01 1.66534425187333e+00 1.37875668050421e-02 
2.41563965059512e-01 1.65591009216831e+00 1.37434632045098e-02 
2.43041420503301e-01 1.64654206752832e+00 1.36989823837373e-02 
2.44518875947090e-01 1.63724019902523e+00 1.36541374080628e-02 
2.45996331390879e-01 1.62800449606357e+00 1.36089410970007e-02 
2.47473786834668e-01 1.61883495668058e+00 1.35634060264378e-02 
2.48951242278457e-01 1.60973156784181e+00 1.35175445308560e-02 
2.50428697722246e-01 1.60069430573184e+00 1.35734976650720e-02 
2.51906153166035e-01 1.59141415935618e+00 1.37545969939373e-02 
2.53383608609824e-01 1.58180831884156e+00 1.39552553305790e-02 
2.54861064053613e-01 1.57187665498137e+00 1.41481716984832e-02 
2.56338519497402e-01 1.56161953163386e+00 1.43330941484160e-02 
2.57815974941191e-01 1.55103781168232e+00 1.45097818968494e-02 
2.59293430384981e-01 1.54013286169361e+00 1.46780060813890e-02 
2.60770885828770e-01 1.52890655523512e+00 1.48375504851086e-02 
2.62248341272559e-01 1.51736127481569e+00 1.49882122260678e-02 
2.63725796716348e-01 1.50549991242216e+00 1.51298024084455e-02 
2.65203252160137e-01 1.49332586862950e+00 1.52621467318966e-02 
2.66680707603926e-01 1.48084305026876e+00 1.53850860559327e-02 
2.68158163047715e-01 1.46805586664391e+00 1.54984769163484e-02 
2.69635618491504e-01 1.45496922429541e+00 1.56021919909684e-02 
2.71113073935293e-01 1.44158852031510e+00 1.56961205122501e-02 
2.72590529379082e-01 1.42791963422409e+00 1.57801686245603e-02 
2.74067984822871e-01 1.41396891843218e+00 1.58542596842456e-02 
2.75545440266660e-01 1.39974318730415e+00 1.59183345009321e-02 
2.77022895710449e-01 1.38524970486509e+00 1.59723515188132e-02 
2.78500351154238e-01 1.37049617118349e+00 1.60162869370217e-02 
2.79977806598027e-01 1.35549070747724e+00 1.60501347685194e-02 
2.81455262041816e-01 1.34024183999386e+00 1.60739068372827e-02 
2.82932717485606e-01 1.32475848272204e+00 1.60876327139085e-02 
2.84410172929395e-01 1.30904991899731e+00 1.60913595900999e-02 
2.85887628373184e-01 1.29312578206958e+00 1.60851520928417e-02 
2.87365083816973e-01 1.27699603470518e+00 1.60690920393895e-02 
2.88842539260762e-01 1.26067094790050e+00 1.60432781345237e-02 
2.90319994704551e-01 1.24416107878788e+00 1.60078256118259e-02 
2.91797450148340e-01 1.22747724781796e+00 1.59628658210226e-02 
2.93274905592129e-01 1.21063051530571e+00 1.59085457637211e-02 
2.94752361035918e-01 1.19363215742944e+00 1.58450275801116e-02 
2.96229816479707e-01 1.17649364177409e+00 1.57724879894471e-02 
2.97707271923496e-01 1.15922660251130e+00 1.56911176873262e-02 
2.99184727367285e-01 1.14184281530969e+00 1.56011207029911e-02 
3.00662182811074e-01 1.12435417206874e+00 1.55148927578092e-02 
3.02139638254863e-01 1.10668117442510e+00 1.54314338322641e-02 
3.03617093698652e-01 1.08883525620386e+00 1.53369437873785e-02 
3.05094549142441e-01 1.07083322224381e+00 1.52310571863229e-02 
3.06572004586231e-01 1.05269204590450e+00 1.51141607008817e-02 
3.08049460030020e-01 1.03442881901230e+00 1.49866592092929e-02 
3.09526915473809e-01 1.01606070229733e+00 1.48489739990364e-02 
3.11004370917598e-01 9.97604876552541e-01 1.47015409425797e-02 
3.12481826361387e-01 9.79078494735912e-01 1.45448086576841e-02 
3.13959281805176e-01 9.60498635224256e-01 1.43792366635650e-02 
3.15436737248965e-01 9.41882256414168e-01 1.42052935437946e-02 
3.16914192692754e-01 9.23246152851193e-01 1.40234551263572e-02 
3.18391648136543e-01 9.04606913053269e-01 1.38342026907198e-02 
3.19869103580332e-01 8.85980879178766e-01 1.36380212111685e-02 
3.21346559024121e-01 8.67384108673152e-01 1.34353976450070e-02 
3.22824014467910e-01 8.48832338011802e-01 1.32268192735098e-02 
3.24301469911699e-01 8.30340948639695e-01 1.30127721027902e-02 
3.25778925355488e-01 8.11924935192016e-01 1.27937393309908e-02 
3.27256380799277e-01 7.93598876063106e-01 1.25701998874341e-02 
3.28733836243067e-01 7.75376906374804e-01 1.23426270485991e-02 
3.30211291686856e-01 7.57272693379375e-01 1.21114871350149e-02 
3.31688747130645e-01 7.39299414316709e-01 1.18772382924096e-02 
3.33166202574434e-01 7.21469736730732e-01 1.16403293597017e-02 
3.34643658018223e-01 7.03795801235832e-01 1.14011988257028e-02 
3.36121113462012e-01 6.86289206710773e-01 1.11602738757111e-02 
3.37598568905801e-01 6.68960997885124e-01 1.09179695285130e-02 
3.39076024349590e-01 6.51821655271608e-01 1.06746878636900e-02 
3.40553479793379e-01 6.34881087387164e-01 1.04308173385463e-02 
3.42030935237168e-01 6.18148625195829e-01 1.01867321934312e-02 
3.43508390680957e-01 6.01633018697869e-01 9.94279194374273e-03 
3.44985846124746e-01 5.85342435581875e-01 9.69934095644527e-03 
3.46463301568535e-01 5.69284461849850e-01 9.45670810853581e-03 
3.47940757012324e-01 5.53466104319581e-01 9.21520652453976e-03 
3.49418212456113e-01 5.37893794903817e-01 8.97510347403314e-03 
3.50895667899902e-01 5.22570806565969e-01 8.73633551850642e-03 
3.52373123343692e-01 5.07481801080667e-01 8.49900677835175e-03 
3.53850578787481e-01 4.92634102842602e-01 8.26325467758085e-03 
3.55328034231270e-01 4.78034364622549e-01 8.02939477350657e-03 
3.56805489675059e-01 4.63688577978429e-01 7.79772209752895e-03 
3.58282945118848e-01 4.49602085576512e-01 7.56851131432573e-03 
3.59760400562637e-01 4.35779595252421e-01 7.34201696154108e-03 
3.61237856006426e-01 4.22225195642692e-01 7.11847376291725e-03 
3.62715311450215e-01 4.08942373219870e-01 6.89809700786571e-03 
3.64192766894004e-01 3.95934030567371e-01 6.68108299057553e-03 
3.65670222337793e-01 3.83202505734486e-01 6.46760950190710e-03 
3.67147677781582e-01 3.70749592516839e-01 6.25783636751333e-03 
3.68625133225371e-01 3.58576561513227e-01 6.05190602585777e-03 
3.70102588669160e-01 3.46684181815970e-01 5.84994414005723e-03 
3.71580044112949e-01 3.35072743198563e-01 5.65206023775892e-03 
3.73057499556738e-01 3.23742078671492e-01 5.45834837356507e-03 
3.74534955000527e-01 3.12691587284396e-01 5.26888780883448e-03 
3.76012410444316e-01 3.01920257060338e-01 5.08374370401834e-03 
3.77489865888106e-01 2.91426687955609e-01 4.90296781902086e-03 
3.78967321331895e-01 2.81209114746239e-01 4.72659921741249e-03 
3.80444776775684e-01 2.71265429750133e-01 4.55466497065931e-03 
3.81922232219473e-01 2.61593205301403e-01 4.38718085886478e-03 
3.83399687663262e-01 2.52189715901051e-01 4.22415206484629e-03 
3.84877143107051e-01 2.43051959975526e-01 4.06557385868847e-03 
3.86354598550840e-01 2.34176681181903e-01 3.91143227022275e-03 
3.87832053994629e-01 2.25560389205361e-01 3.76170474717966e-03 
3.89309509438418e-01 2.17199380001362e-01 3.61636079704521e-03 
3.90786964882207e-01 2.09089755441332e-01 3.47536261092197e-03 
3.92264420325996e-01 2.01227442326750e-01 3.33866566795127e-03 
3.93741875769785e-01 1.93608210742344e-01 3.20621931909395e-03 
3.95219331213574e-01 1.86227691724544e-01 3.07796734929141e-03 
3.96696786657363e-01 1.79081394226473e-01 2.95384851723875e-03 
3.98174242101152e-01 1.72164721365539e-01 2.83379707219513e-03 
3.99651697544942e-01 1.65472985944125e-01 2.71781092171456e-03 
4.01129152988731e-01 1.59001877723372e-01 2.60599180735827e-03 
4.02606608432520e-01 1.52747695766462e-01 2.49818150875462e-03 
4.04084063876309e-01 1.46705327998180e-01 2.39413450642627e-03 
4.05561519320098e-01 1.40869648786007e-01 2.29376582694718e-03 
4.07038974763887e-01 1.35235529396831e-01 2.19698911502227e-03 
4.08516430207676e-01 1.29797847797861e-01 2.10371694217798e-03 
4.09993885651465e-01 1.24551497815838e-01 2.01386109548497e-03 
4.11471341095254e-01 1.19491397670198e-01 1.92733284682740e-03 
4.12948796539043e-01 1.14612497897112e-01 1.84404320327945e-03 
4.14426251982832e-01 1.09909788682438e-01 1.76390313918871e-03 
4.15903707426621e-01 1.05378306622570e-01 1.68682381059740e-03 
4.17381162870410e-01 1.01013140932891e-01 1.61271675265770e-03 
4.18858618314199e-01 9.68094391241610e-02 1.54149406071604e-03 
4.20336073757988e-01 9.27624121675929e-02 1.47306855575466e-03 
4.21813529201777e-01 8.88673391697060e-02 1.40735393488734e-03 
4.23290984645567e-01 8.51195715782126e-02 1.34426490760944e-03 
4.24768440089356e-01 8.15145369402823e-02 1.28371731850258e-03 
4.26245895533145e-01 7.80477422344888e-02 1.22562825708997e-03 
4.27723350976934e-01 7.47147767976257e-02 1.16991615553120e-03 
4.29200806420723e-01 7.15113148673680e-02 1.11650087483531e-03 
4.30678261864512e-01 6.84331177614753e-02 1.06530378025818e-03 
4.32155717308301e-01 6.54760357138837e-02 1.01624780653565e-03 
4.33633172752090e-01 6.26360093876268e-02 9.69257513587078e-04 
4.35110628195879e-01 5.99090710840718e-02 9.24259133305950e-04 
4.36588083639668e-01 5.72913456674522e-02 8.81180608034791e-04 
4.38065539083457e-01 5.47790512231476e-02 8.39951621301025e-04 
4.39542994527246e-01 5.23684994675900e-02 8.00503621369353e-04 
4.41020449971035e-01 5.00560959270852e-02 7.62769838144262e-04 
4.42497905414824e-01 4.78383399022288e-02 7.26685293934132e-04 
4.43975360858613e-01 4.57118242339681e-02 6.92186808565827e-04 
4.45452816302402e-01 4.36732348867258e-02 6.59212999316167e-04 
4.46930271746192e-01 4.17193503633619e-02 6.27704276104096e-04 
4.48407727189981e-01 3.98470409661024e-02 5.97602832365102e-04 
4.49885182633770e-01 3.80532679169207e-02 5.68852632007203e-04 
4.51362638077559e-01 3.63350823502197e-02 5.41399392826175e-04 
4.52840093521348e-01 3.46896241900264e-02 5.15190566736441e-04 
4.54317548965137e-01 3.31141209232868e-02 4.90175317153139e-04 
4.55795004408926e-01 3.16058862802345e-02 4.66304493840712e-04 
4.57272459852715e-01 3.01623188322049e-02 4.43530605523740e-04 
4.58749915296504e-01 2.87809005166791e-02 4.21807790536703e-04 
