Energy(eV)           EEDF(eV^-(3/2))      Anisotropy(eV^-(3/2))
8.55169679058157e-04 3.61033329212026e+01 3.66559848778086e-02 
2.56550903717447e-03 3.52457809012866e+01 4.78300065373586e-02 
4.27584839529078e-03 3.42150398312805e+01 6.23097952737010e-02 
5.98618775340710e-03 3.30787418144121e+01 7.16401099132490e-02 
7.69652711152341e-03 3.19040022862866e+01 7.81360055100645e-02 
9.40686646963973e-03 3.07210369951674e+01 8.28604498622906e-02 
1.11172058277560e-02 2.95556952076909e+01 8.63764955531818e-02 
1.28275451858724e-02 2.84146782427162e+01 8.89400868521610e-02 
1.45378845439887e-02 2.73045929169389e+01 9.07834789797886e-02 
1.62482239021050e-02 2.62292627601702e+01 9.20853850789196e-02 
1.79585632602213e-02 2.51934984537913e+01 9.29427615583645e-02 
1.96689026183376e-02 2.41965764236239e+01 9.34305988751254e-02 
2.13792419764539e-02 2.32408134091670e+01 9.36476779359568e-02 
2.30895813345702e-02 2.23264027727070e+01 9.36542873804355e-02 
2.47999206926866e-02 2.14549036617213e+01 9.34631159736838e-02 
2.65102600508029e-02 2.06234565414792e+01 9.30059370552808e-02 
2.82205994089192e-02 1.98264724354624e+01 9.23483650416077e-02 
2.99309387670355e-02 1.90644478111613e+01 9.15888083939655e-02 
3.16412781251518e-02 1.83370270065368e+01 9.07387524688761e-02 
3.33516174832681e-02 1.76435481049184e+01 8.98219540716857e-02 
3.50619568413844e-02 1.69838544546962e+01 8.88381065180733e-02 
3.67722961995008e-02 1.63559467462452e+01 8.77787675288553e-02 
3.84826355576171e-02 1.57579982827501e+01 8.66723866088864e-02 
4.01929749157334e-02 1.51896295264390e+01 8.55211465806226e-02 
4.19033142738497e-02 1.46483195831903e+01 8.43193268747908e-02 
4.36136536319660e-02 1.41323235730074e+01 8.30913776443634e-02 
4.53239929900823e-02 1.36412082118464e+01 8.18524282819747e-02 
4.70343323481986e-02 1.31745070250829e+01 8.06059984712734e-02 
4.87446717063150e-02 1.27317331963073e+01 7.93539714979899e-02 
5.04550110644313e-02 1.23123903925504e+01 7.80922561978100e-02 
5.21653504225476e-02 1.19133386739959e+01 7.68261497198865e-02 
5.38756897806639e-02 1.15333392916316e+01 7.55600131523430e-02 
5.55860291387802e-02 1.11719772570492e+01 7.42938719999577e-02 
5.72963684968965e-02 1.08288347773316e+01 7.30278115076849e-02 
5.90067078550128e-02 1.05034960792325e+01 7.17609254078827e-02 
6.07170472131291e-02 1.01955514471440e+01 7.05155429830229e-02 
6.24273865712455e-02 9.90222719496381e+00 6.93008913002645e-02 
6.41377259293618e-02 9.62298433717390e+00 6.80905468537880e-02 
6.58480652874781e-02 9.35750048723825e+00 6.68810094066386e-02 
6.75584046455944e-02 9.10545753966842e+00 6.56709699511629e-02 
6.92687440037107e-02 8.86654352841379e+00 6.44614477859518e-02 
7.09790833618270e-02 8.64032047503106e+00 6.32935816102741e-02 
7.26894227199433e-02 8.42478742497860e+00 6.21706780124949e-02 
7.43997620780597e-02 8.21970580559066e+00 6.10466378468970e-02 
7.61101014361760e-02 8.02484104640815e+00 5.99199506405830e-02 
7.78204407942923e-02 7.83996341772356e+00 5.87886552475266e-02 
7.95307801524086e-02 7.66484865880465e+00 5.76632193742140e-02 
8.12411195105249e-02 7.49895757923149e+00 5.65909692320537e-02 
8.29514588686412e-02 7.34098989547568e+00 5.55638168314551e-02 
8.46617982267576e-02 7.19077799340011e+00 5.45310327239456e-02 
8.63721375848739e-02 7.04815736739468e+00 5.34908023598642e-02 
8.80824769429902e-02 6.91296684725470e+00 5.24409904110896e-02 
8.97928163011065e-02 6.78504870043749e+00 5.14075242956336e-02 
9.15031556592228e-02 6.66378983324717e+00 5.04411941721208e-02 
9.32134950173391e-02 6.54830544762776e+00 4.95173550779723e-02 
9.49238343754554e-02 6.43848304250939e+00 4.85841109713991e-02 
9.66341737335717e-02 6.33421161856745e+00 4.76398078649848e-02 
9.83445130916881e-02 6.23538168027284e+00 4.66825782020068e-02 
1.00054852449804e-01 6.14188516503641e+00 4.57489821600602e-02 
1.01765191807921e-01 6.05317343384505e+00 4.48772499899263e-02 
1.03475531166037e-01 5.96876989668578e+00 4.40303109260024e-02 
1.05185870524153e-01 5.88859629613430e+00 4.31704771729067e-02 
1.06896209882270e-01 5.81257476318541e+00 4.22962307178767e-02 
1.08606549240386e-01 5.74062771999106e+00 4.14059093748472e-02 
1.10316888598502e-01 5.67267773732796e+00 4.05537113929987e-02 
1.12027227956619e-01 5.60817388137598e+00 3.97708966697183e-02 
1.13737567314735e-01 5.54684008696028e+00 3.90016603790022e-02 
1.15447906672851e-01 5.48862252909120e+00 3.82176142314890e-02 
1.17158246030968e-01 5.43346700391467e+00 3.74175289254853e-02 
1.18868585389084e-01 5.38131882323063e+00 3.66000853619431e-02 
1.20578924747200e-01 5.33212268292359e+00 3.58427911231114e-02 
1.22289264105316e-01 5.28531361862491e+00 3.51680740484044e-02 
1.23999603463433e-01 5.24075696257984e+00 3.44956339630937e-02 
1.25709942821549e-01 5.19841769686140e+00 3.38086757721604e-02 
1.27420282179665e-01 5.15826011077179e+00 3.31063590742878e-02 
1.29130621537782e-01 5.12024773288090e+00 3.23877924859608e-02 
1.30840960895898e-01 5.08434325000269e+00 3.17002180354572e-02 
1.32551300254014e-01 5.05026439930430e+00 3.10477988750498e-02 
1.34261639612131e-01 5.01797974276663e+00 3.03803480294840e-02 
1.35971978970247e-01 4.98745908855128e+00 2.96966935225944e-02 
1.37682318328363e-01 4.95867133011139e+00 2.89960549773831e-02 
1.39392657686480e-01 4.93158436873401e+00 2.82902425753160e-02 
1.41102997044596e-01 4.90611283255520e+00 2.76560001671113e-02 
1.42813336402712e-01 4.88192242996180e+00 2.70867543159272e-02 
1.44523675760829e-01 4.85899345797856e+00 2.65034163142602e-02 
1.46234015118945e-01 4.83730543984903e+00 2.59055028628356e-02 
1.47944354477061e-01 4.81683708611779e+00 2.52925136735635e-02 
1.49654693835177e-01 4.79756625173122e+00 2.46984134029325e-02 
1.51365033193294e-01 4.77935670936339e+00 2.42087809082527e-02 
1.53075372551410e-01 4.76192762460797e+00 2.37942017013597e-02 
1.54785711909526e-01 4.74527007252585e+00 2.33692211250696e-02 
1.56496051267643e-01 4.72937465244842e+00 2.29336366358397e-02 
1.58206390625759e-01 4.71423147863516e+00 2.24872365632651e-02 
1.59916729983875e-01 4.69983016954401e+00 2.20298008294236e-02 
1.61627069341992e-01 4.68615983576627e+00 2.15611017190735e-02 
1.63337408700108e-01 4.67320906668236e+00 2.10809047045115e-02 
1.65047748058224e-01 4.66096591589970e+00 2.05889693291409e-02 
1.66758087416341e-01 4.64941788553942e+00 2.00850501540306e-02 
1.68468426774457e-01 4.63855190944471e+00 1.95688977719716e-02 
1.70178766132573e-01 4.62835433539012e+00 1.90984368423007e-02 
1.71889105490690e-01 4.61868413905258e+00 1.87171101141660e-02 
1.73599444848806e-01 4.60945114764863e+00 1.83672446860475e-02 
1.75309784206922e-01 4.60064976783838e+00 1.80088420577188e-02 
1.77020123565039e-01 4.59227409804543e+00 1.76417966245124e-02 
1.78730462923155e-01 4.58431792390890e+00 1.72660001153812e-02 
1.80440802281271e-01 4.57677471336984e+00 1.69256202420597e-02 
1.82151141639387e-01 4.56955762978698e+00 1.66380516339848e-02 
1.83861480997504e-01 4.56263756239767e+00 1.63585075372091e-02 
1.85571820355620e-01 4.55601129438003e+00 1.60722120651421e-02 
1.87282159713736e-01 4.54967541302361e+00 1.57791092396836e-02 
1.88992499071853e-01 4.54362630802063e+00 1.54791414353039e-02 
1.90702838429969e-01 4.53786016959647e+00 1.52311571809236e-02 
1.92413177788085e-01 4.53228290257357e+00 1.50444706109789e-02 
1.94123517146202e-01 4.52688458360266e+00 1.48590262552681e-02 
1.95833856504318e-01 4.52166414565082e+00 1.46688702320792e-02 
1.97544195862434e-01 4.51662042288217e+00 1.44739836276195e-02 
1.99254535220551e-01 4.51175215047154e+00 1.42773470604005e-02 
2.00964874578667e-01 4.50705384596070e+00 1.41234058089917e-02 
2.02675213936783e-01 4.50246469378517e+00 1.40111256901328e-02 
2.04385553294900e-01 4.49798460914268e+00 1.38955572168375e-02 
2.06095892653016e-01 4.49361345735967e+00 1.37766971255386e-02 
2.07806232011132e-01 4.48935105401921e+00 1.36545415513651e-02 
2.09516571369248e-01 4.48519716506916e+00 1.35390761315831e-02 
2.11226910727365e-01 4.48113916146769e+00 1.34670742682305e-02 
2.12937250085481e-01 4.47713267622659e+00 1.34296238784358e-02 
2.14647589443597e-01 4.47317807356503e+00 1.33901948324129e-02 
2.16357928801714e-01 4.46927569866427e+00 1.33487908722793e-02 
2.18068268159830e-01 4.46542587777905e+00 1.33054155157753e-02 
2.19778607517946e-01 4.46162891834546e+00 1.32766360055310e-02 
2.21488946876063e-01 4.45786598130477e+00 1.32912910615195e-02 
2.23199286234179e-01 4.45410487086973e+00 1.33333315720206e-02 
2.24909625592295e-01 4.45034590762389e+00 1.33745488039444e-02 
2.26619964950412e-01 4.44658940873779e+00 1.34149457363378e-02 
2.28330304308528e-01 4.44283568798267e+00 1.34545253436114e-02 
2.30040643666644e-01 4.43908505574420e+00 1.35137415486952e-02 
2.31750983024761e-01 4.43531481575383e+00 1.36115406551765e-02 
2.33461322382877e-01 4.43150400024819e+00 1.37277922141256e-02 
2.35171661740993e-01 4.42765245856223e+00 1.38440785660021e-02 
2.36882001099110e-01 4.42376004152128e+00 1.39603941276120e-02 
2.38592340457226e-01 4.41982660146424e+00 1.40767332809587e-02 
2.40302679815342e-01 4.41585199226685e+00 1.42187943770146e-02 
2.42013019173458e-01 4.41180682486420e+00 1.43988022449858e-02 
2.43723358531575e-01 4.40767626313348e+00 1.45915032610476e-02 
2.45433697889691e-01 4.40345929299316e+00 1.47848596736977e-02 
2.47144037247807e-01 4.39915490299759e+00 1.49788473828799e-02 
2.48854376605924e-01 4.39476208465207e+00 1.51734419086318e-02 
2.50564715964040e-01 4.39027983273216e+00 1.53942465582206e-02 
2.52275055322156e-01 4.38567663443978e+00 1.56460813716445e-02 
2.53985394680273e-01 4.38094432735585e+00 1.59039485152866e-02 
2.55695734038389e-01 4.37608091347749e+00 1.61627023635775e-02 
2.57406073396505e-01 4.37108440100371e+00 1.64222923942310e-02 
2.59116412754622e-01 4.36595280530116e+00 1.66826671293750e-02 
2.60826752112738e-01 4.36068414988558e+00 1.69735382830565e-02 
2.62537091470854e-01 4.35523849939001e+00 1.72945927156422e-02 
2.64247430828971e-01 4.34961204387612e+00 1.76169948939474e-02 
2.65957770187087e-01 4.34380162146204e+00 1.79401700978460e-02 
2.67668109545203e-01 4.33780408876467e+00 1.82640283314279e-02 
2.69378448903319e-01 4.33161632309779e+00 1.85922756465060e-02 
2.71088788261436e-01 4.32523001189577e+00 1.89487954436570e-02 
2.72799127619552e-01 4.31860835918994e+00 1.93290204254064e-02 
2.74509466977668e-01 4.31174701188375e+00 1.97095892663108e-02 
2.76219806335785e-01 4.30464165937231e+00 2.00903624136649e-02 
2.77930145693901e-01 4.29728803757266e+00 2.04711976640288e-02 
2.79640485052017e-01 4.28968193301133e+00 2.08611728418733e-02 
2.81350824410134e-01 4.28180522054137e+00 2.12824458429568e-02 
2.83061163768250e-01 4.27361845562026e+00 2.17250288047380e-02 
2.84771503126366e-01 4.26511593720006e+00 2.21668667840270e-02 
2.86481842484483e-01 4.25629206134938e+00 2.26077442026576e-02 
2.88192181842599e-01 4.24714132843284e+00 2.30474419637570e-02 
2.89902521200715e-01 4.23765835035688e+00 2.34857375889153e-02 
2.91612860558832e-01 4.22783785787269e+00 2.39224053646884e-02 
2.93323199916948e-01 4.21767470792671e+00 2.43572164984535e-02 
2.95033539275064e-01 4.20716389104852e+00 2.47899392836467e-02 
2.96743878633181e-01 4.19630053876560e+00 2.52203392742990e-02 
2.98454217991297e-01 4.18507993103407e+00 2.56481794688205e-02 
3.00164557349413e-01 4.17349750367398e+00 2.61060367709754e-02 
3.01874896707529e-01 4.16148724533231e+00 2.66143387188730e-02 
3.03585236065646e-01 4.14900071373830e+00 2.71396238342139e-02 
3.05295575423762e-01 4.13603092175531e+00 2.76599172763222e-02 
3.07005914781878e-01 4.12257119862627e+00 2.81748232474052e-02 
3.08716254139995e-01 4.10861520501771e+00 2.86839437711953e-02 
3.10426593498111e-01 4.09415694790365e+00 2.91868792380238e-02 
3.12136932856227e-01 4.07919079525125e+00 2.96832289686728e-02 
3.13847272214344e-01 4.06371149046958e+00 3.01725917960475e-02 
3.15557611572460e-01 4.04771416658224e+00 3.06545666635999e-02 
3.17267950930576e-01 4.03119436008413e+00 3.11287532393689e-02 
3.18978290288693e-01 4.01414802444232e+00 3.15947525443946e-02 
3.20688629646809e-01 3.99657154320058e+00 3.20521675941783e-02 
3.22398969004925e-01 3.97846174264739e+00 3.25006040517872e-02 
3.24109308363042e-01 3.95981590400698e+00 3.29396708911399e-02 
3.25819647721158e-01 3.94063177511334e+00 3.33689810688990e-02 
3.27529987079274e-01 3.92090758152748e+00 3.37881522033293e-02 
3.29240326437390e-01 3.90064203705871e+00 3.41968072584413e-02 
3.30950665795507e-01 3.87983435365133e+00 3.45945752316487e-02 
3.32661005153623e-01 3.85848425059906e+00 3.49810918431312e-02 
3.34371344511739e-01 3.83659196305046e+00 3.53560002250182e-02 
3.36081683869856e-01 3.81415824976968e+00 3.57189516084926e-02 
3.37792023227972e-01 3.79118440011838e+00 3.60696060068559e-02 
3.39502362586088e-01 3.76767224022589e+00 3.64076328925592e-02 
3.41212701944205e-01 3.74362413831640e+00 3.67327118662120e-02 
3.42923041302321e-01 3.71904300916392e+00 3.70445333155360e-02 
3.44633380660437e-01 3.69393231764725e+00 3.73427990622276e-02 
3.46343720018554e-01 3.66829608137986e+00 3.76272229946987e-02 
3.48054059376670e-01 3.64213887239108e+00 3.78975316846828e-02 
3.49764398734786e-01 3.61546581783814e+00 3.81655474330733e-02 
3.51474738092903e-01 3.58824341595312e+00 3.84511519114327e-02 
3.53185077451019e-01 3.56040875506004e+00 3.87401917469209e-02 
3.54895416809135e-01 3.53196895071326e+00 3.90108996929703e-02 
3.56605756167251e-01 3.50293190639600e+00 3.92629876313536e-02 
3.58316095525368e-01 3.47330630883875e+00 3.94961905705812e-02 
3.60026434883484e-01 3.44310162157178e+00 3.97102673879044e-02 
3.61736774241600e-01 3.41232807670572e+00 3.99050015160154e-02 
3.63447113599717e-01 3.38099666494004e+00 4.00802015714386e-02 
3.65157452957833e-01 3.34911912380589e+00 4.02357019218513e-02 
3.66867792315949e-01 3.31670792415641e+00 4.03713631897816e-02 
3.68578131674066e-01 3.28377625492373e+00 4.04870726903792e-02 
3.70288471032182e-01 3.25033800616875e+00 4.05827448012118e-02 
3.71998810390298e-01 3.21640775045607e+00 4.06583212623071e-02 
3.73709149748415e-01 3.18200072259286e+00 4.07137714049415e-02 
3.75419489106531e-01 3.14713279777678e+00 4.07490923079700e-02 
3.77129828464647e-01 3.11182046820417e+00 4.07643088807929e-02 
3.78840167822764e-01 3.07608081819575e+00 4.07594738723588e-02 
3.80550507180880e-01 3.03993149790263e+00 4.07346678059084e-02 
3.82260846538996e-01 3.00339069566127e+00 4.06899988394802e-02 
3.83971185897113e-01 2.96647710907094e+00 4.06256025525121e-02 
3.85681525255229e-01 2.92920991487232e+00 4.05416416591868e-02 
3.87391864613345e-01 2.89160873771054e+00 4.04383056494730e-02 
3.89102203971461e-01 2.85369361787001e+00 4.03158103591153e-02 
3.90812543329578e-01 2.81548497807251e+00 4.01743974701382e-02 
3.92522882687694e-01 2.77700358943329e+00 4.00143339437080e-02 
3.94233222045810e-01 2.73827053667307e+00 3.98359113874662e-02 
3.95943561403927e-01 2.69930718268641e+00 3.96394453597321e-02 
3.97653900762043e-01 2.66013513256922e+00 3.94252746132178e-02 
3.99364240120159e-01 2.62077619720970e+00 3.91946577935198e-02 
4.01074579478276e-01 2.58124710507758e+00 3.89537679517619e-02 
4.02784918836392e-01 2.54153493555414e+00 3.87013414325700e-02 
4.04495258194508e-01 2.50166357570132e+00 3.84312473198500e-02 
4.06205597552625e-01 2.46165702319374e+00 3.81439587610128e-02 
4.07915936910741e-01 2.42153934320862e+00 3.78399697382335e-02 
4.09626276268857e-01 2.38133462546126e+00 3.75197937980782e-02 
4.11336615626974e-01 2.34106694151619e+00 3.71839627397166e-02 
4.13046954985090e-01 2.30076030250211e+00 3.68330252669736e-02 
4.14757294343206e-01 2.26043861735573e+00 3.64675456095485e-02 
4.16467633701323e-01 2.22012565171641e+00 3.60881021187963e-02 
4.18177973059439e-01 2.17984498758945e+00 3.56952858434951e-02 
4.19888312417555e-01 2.13961998389155e+00 3.52896990910100e-02 
4.21598651775671e-01 2.09947373798719e+00 3.48719539792465e-02 
4.23308991133788e-01 2.05942904831927e+00 3.44426709847226e-02 
4.25019330491904e-01 2.01950837823175e+00 3.40024774919989e-02 
4.26729669850020e-01 1.97973382107604e+00 3.35520063496043e-02 
4.28440009208137e-01 1.94012706668641e+00 3.30918944374512e-02 
4.30150348566253e-01 1.90070936930337e+00 3.26227812505803e-02 
4.31860687924369e-01 1.86150151701675e+00 3.21453075038933e-02 
4.33571027282486e-01 1.82252380279357e+00 3.16601137623362e-02 
4.35281366640602e-01 1.78379599714832e+00 3.11678391007688e-02 
4.36991705998718e-01 1.74533732250617e+00 3.06691197975313e-02 
4.38702045356835e-01 1.70716642930228e+00 3.01645880654716e-02 
4.40412384714951e-01 1.66930137385288e+00 2.96548708239253e-02 
4.42122724073067e-01 1.63175959802667e+00 2.91405885148832e-02 
4.43833063431184e-01 1.59455791073759e+00 2.86223539662942e-02 
4.45543402789300e-01 1.55771247127309e+00 2.81007713051684e-02 
4.47253742147416e-01 1.52123877446453e+00 2.75764349228533e-02 
4.48964081505532e-01 1.48515163770005e+00 2.70499284945652e-02 
4.50674420863649e-01 1.44946518977294e+00 2.65218240549670e-02 
4.52384760221765e-01 1.41419286155252e+00 2.59926811312842e-02 
4.54095099579881e-01 1.37934737845804e+00 2.54630459351668e-02 
4.55805438937998e-01 1.34494075471023e+00 2.49334506142181e-02 
4.57515778296114e-01 1.31098428932957e+00 2.44044125638320e-02 
4.59226117654230e-01 1.27748856384480e+00 2.38764337997045e-02 
4.60936457012347e-01 1.24446344167040e+00 2.33500003911264e-02 
4.62646796370463e-01 1.21191806910689e+00 2.28255819549074e-02 
4.64357135728579e-01 1.17986087791367e+00 2.23036312095341e-02 
4.66067475086696e-01 1.14829958939999e+00 2.17845835889404e-02 
4.67777814444812e-01 1.11724121997633e+00 2.12688569150457e-02 
4.69488153802928e-01 1.08669208810485e+00 2.07568511280049e-02 
4.71198493161045e-01 1.05665782258526e+00 2.02489480729323e-02 
4.72908832519161e-01 1.02714337210955e+00 1.97455113416738e-02 
4.74619171877277e-01 9.98153016017174e-01 1.92468861680437e-02 
4.76329511235393e-01 9.69690376180652e-01 1.87533993747906e-02 
4.78039850593510e-01 9.41758429949896e-01 1.82653593704259e-02 
4.79750189951626e-01 9.14359524082900e-01 1.77830561939280e-02 
4.81460529309742e-01 8.87495389589578e-01 1.73067616052297e-02 
4.83170868667859e-01 8.61167157415255e-01 1.68367292193113e-02 
4.84881208025975e-01 8.35375374890336e-01 1.63731946816436e-02 
4.86591547384091e-01 8.10120022872923e-01 1.59163758826653e-02 
4.88301886742208e-01 7.85400533511762e-01 1.54664732089339e-02 
4.90012226100324e-01 7.61215808557736e-01 1.50236698285535e-02 
4.91722565458440e-01 7.37564238153210e-01 1.45881320084649e-02 
4.93432904816557e-01 7.14443720029914e-01 1.41600094611717e-02 
4.95143244174673e-01 6.91851679047553e-01 1.37394357184812e-02 
4.96853583532789e-01 6.69785087007129e-01 1.33265285298527e-02 
4.98563922890906e-01 6.48240482674898e-01 1.29213902829684e-02 
5.00274262249022e-01 6.27213991954961e-01 1.25241701454077e-02 
5.01984601607138e-01 6.06706742182863e-01 1.21350011356268e-02 
5.03694940965254e-01 5.86716158091171e-01 1.17540121095791e-02 
5.05405280323371e-01 5.67236382696354e-01 1.13812539953539e-02 
5.07115619681487e-01 5.48261279651740e-01 1.10167348929576e-02 
5.08825959039603e-01 5.29784451863677e-01 1.06604518887262e-02 
5.10536298397720e-01 5.11799259872949e-01 1.03123915340398e-02 
5.12246637755836e-01 4.94298839966755e-01 9.97253032617029e-03 
5.13956977113952e-01 4.77276121988949e-01 9.64083518978908e-03 
5.15667316472069e-01 4.60723846818645e-01 9.31726395774228e-03 
5.17377655830185e-01 4.44634583489684e-01 9.00176584977191e-03 
5.19087995188301e-01 4.29000745925821e-01 8.69428194794164e-03 
5.20798334546418e-01 4.13814609268836e-01 8.39474566760279e-03 
5.22508673904534e-01 3.99068325779052e-01 8.10308322281457e-03 
5.24219013262650e-01 3.84753940290003e-01 7.81921408520911e-03 
5.25929352620767e-01 3.70863405201193e-01 7.54305143537106e-03 
5.27639691978883e-01 3.57388594995012e-01 7.27450260587713e-03 
5.29350031336999e-01 3.44321320265945e-01 7.01346951521628e-03 
5.31060370695116e-01 3.31653341252231e-01 6.75984909188545e-03 
