Energy(eV)           EEDF(eV^-(3/2))      Anisotropy(eV^-(3/2))
1.25159477935691e-02 7.04889300778666e-02 4.46853851423222e-05 
3.75478433807073e-02 7.04856104131230e-02 1.12614278059154e-04 
6.25797389678455e-02 7.04815086417538e-02 2.02362051082889e-04 
8.76116345549838e-02 7.04775916018242e-02 2.99172708123211e-04 
1.12643530142122e-01 7.04745359643314e-02 4.00152449407944e-04 
1.37675425729260e-01 7.04720915402551e-02 4.97032273066352e-04 
1.62707321316398e-01 7.04702634912904e-02 5.93726021124935e-04 
1.87739216903537e-01 7.04688647605290e-02 6.88052600254883e-04 
2.12771112490675e-01 7.04677697580896e-02 7.86081340790228e-04 
2.37803008077813e-01 7.04666141508303e-02 8.74645903759186e-04 
2.62834903664951e-01 7.04654102069404e-02 9.68261201124426e-04 
2.87866799252090e-01 7.04636483283185e-02 1.05057569839199e-03 
3.12898694839228e-01 7.04612557471585e-02 1.13209496465158e-03 
3.37930590426366e-01 7.04579999605121e-02 1.21019385499881e-03 
3.62962486013504e-01 7.04537924259758e-02 1.28669146905150e-03 
3.87994381600642e-01 7.04484295331443e-02 1.36049642264532e-03 
4.13026277187781e-01 7.04418203141116e-02 1.43204308528020e-03 
4.38058172774919e-01 7.04339290168237e-02 1.50154566510470e-03 
4.63090068362057e-01 7.04246778096231e-02 1.56884214050099e-03 
4.88121963949195e-01 7.04139931273581e-02 1.63393733597960e-03 
5.13153859536334e-01 7.04018063603871e-02 1.69681189153996e-03 
5.38185755123472e-01 7.03880824953971e-02 1.75755807355190e-03 
5.63217650710610e-01 7.03727624535923e-02 1.81615997781654e-03 
5.88249546297748e-01 7.03557909707145e-02 1.87264550036588e-03 
6.13281441884886e-01 7.03371165099324e-02 1.92704431427243e-03 
6.38313337472025e-01 7.03166911728627e-02 1.97938749174264e-03 
6.63345233059163e-01 7.02944706094513e-02 2.02970722560470e-03 
6.88377128646301e-01 7.02704139265643e-02 2.07803641292586e-03 
7.13409024233439e-01 7.02444840439111e-02 2.12440383613926e-03 
7.38440919820578e-01 7.02166591062595e-02 2.16885454448319e-03 
7.63472815407716e-01 7.01869085556876e-02 2.21141823045022e-03 
7.88504710994854e-01 7.01552048839910e-02 2.25213040085808e-03 
8.13536606581992e-01 7.01215235391672e-02 2.29102690934125e-03 
8.38568502169130e-01 7.00858428318899e-02 2.32814388341454e-03 
8.63600397756269e-01 7.00481438421363e-02 2.36351765844362e-03 
8.88632293343407e-01 7.00084103261230e-02 2.39718471724512e-03 
9.13664188930545e-01 6.99666286236953e-02 2.42918163440341e-03 
9.38696084517683e-01 6.99227875663090e-02 2.45954502461301e-03 
9.63727980104822e-01 6.98768783857345e-02 2.48831149454227e-03 
9.88759875691960e-01 6.98288946236060e-02 2.51551485271829e-03 
1.01379177127910e+00 6.97788474726976e-02 2.54114759098253e-03 
1.03882366686624e+00 6.97270253129744e-02 2.56531740656621e-03 
1.06385556245337e+00 6.96734337411632e-02 2.58803407771411e-03 
1.08888745804051e+00 6.96180798002736e-02 2.60933360636446e-03 
1.11391935362765e+00 6.95609719120999e-02 2.62925174843906e-03 
1.13895124921479e+00 6.95021198109901e-02 2.64782398381427e-03 
1.16398314480193e+00 6.94415344789367e-02 2.66508548799474e-03 
1.18901504038907e+00 6.93792280820383e-02 2.68107241942680e-03 
1.21404693597620e+00 6.93152020872087e-02 2.69588778216652e-03 
1.23907883156334e+00 6.92492858440965e-02 2.70966331479213e-03 
1.26411072715048e+00 6.91814868115156e-02 2.72251269153322e-03 
1.28914262273762e+00 6.91118126848556e-02 2.73446299870905e-03 
1.31417451832476e+00 6.90402857050130e-02 2.74550206306459e-03 
1.33920641391189e+00 6.89671013028657e-02 2.75564996865847e-03 
1.36423830949903e+00 6.88922728496332e-02 2.76491701092524e-03 
1.38927020508617e+00 6.88158147953979e-02 2.77331331875272e-03 
1.41430210067331e+00 6.87377426000775e-02 2.78085070569096e-03 
1.43933399626045e+00 6.86580726662149e-02 2.78754246002114e-03 
1.46436589184759e+00 6.85768222736122e-02 2.79340315547829e-03 
1.48939778743472e+00 6.84940095158351e-02 2.79844619289750e-03 
1.51442968302186e+00 6.84096840604001e-02 2.80266213041723e-03 
1.53946157860900e+00 6.83242384146975e-02 2.80607860015070e-03 
1.56449347419614e+00 6.82376937061470e-02 2.80873049797899e-03 
1.58952536978328e+00 6.81500713177389e-02 2.81063658515177e-03 
1.61455726537042e+00 6.80613928449437e-02 2.81181609812705e-03 
1.63958916095755e+00 6.79716800548373e-02 2.81228865426950e-03 
1.66462105654469e+00 6.78809548473571e-02 2.81207416631399e-03 
1.68965295213183e+00 6.77892392186107e-02 2.81119276477155e-03 
1.71468484771897e+00 6.76965552261626e-02 2.80966472756995e-03 
1.73971674330611e+00 6.76029249562280e-02 2.80751041626608e-03 
1.76474863889324e+00 6.75083704927065e-02 2.80475021825836e-03 
1.78978053448038e+00 6.74129138879908e-02 2.80140449447963e-03 
1.81481243006752e+00 6.73165771354888e-02 2.79749353210196e-03 
1.83984432565466e+00 6.72193821437994e-02 2.79303750183282e-03 
1.86487622124180e+00 6.71213507124836e-02 2.78805641941333e-03 
1.88990811682894e+00 6.70225045093767e-02 2.78257306265902e-03 
1.91494001241607e+00 6.69228165295905e-02 2.77663598122807e-03 
1.93997190800321e+00 6.68218567420882e-02 2.77027407262122e-03 
1.96500380359035e+00 6.67196485549005e-02 2.76346662515297e-03 
1.99003569917749e+00 6.66162154012289e-02 2.75623240309660e-03 
2.01506759476463e+00 6.65115807103666e-02 2.74858985584546e-03 
2.04009949035177e+00 6.64057678801489e-02 2.74055710074725e-03 
2.06513138593890e+00 6.62988002509006e-02 2.73215190809790e-03 
2.09016328152604e+00 6.61907010808529e-02 2.72338835376119e-03 
2.11519517711318e+00 6.60815460477982e-02 2.71425345139594e-03 
2.14022707270032e+00 6.59717946202055e-02 2.70475064908345e-03 
2.16525896828746e+00 6.58614663583868e-02 2.69494125999391e-03 
2.19029086387459e+00 6.57505804975210e-02 2.68484354919176e-03 
2.21532275946173e+00 6.56391197635136e-02 2.67450306498537e-03 
2.24035465504887e+00 6.55268168088011e-02 2.66396556235704e-03 
2.26538655063601e+00 6.54136905154135e-02 2.65322737406525e-03 
2.29041844622315e+00 6.52997593266974e-02 2.64230158104339e-03 
2.31545034181029e+00 6.51850415684021e-02 2.63119724611860e-03 
2.34048223739742e+00 6.50695554291083e-02 2.61992346797027e-03 
2.36551413298456e+00 6.49533189419662e-02 2.60848935036341e-03 
2.39054602857170e+00 6.48363499677033e-02 2.59690397422217e-03 
2.41557792415884e+00 6.47186661788620e-02 2.58517637233224e-03 
2.44060981974598e+00 6.46002850452261e-02 2.57331550649970e-03 
2.46564171533311e+00 6.44812238203966e-02 2.56133024698414e-03 
2.49067361092025e+00 6.43614995294748e-02 2.54923241214388e-03 
2.51570550650739e+00 6.42410898468646e-02 2.53705383729975e-03 
2.54073740209453e+00 6.41197450560122e-02 2.52481156599396e-03 
2.56576929768167e+00 6.39974842686420e-02 2.51248000417164e-03 
2.59080119326881e+00 6.38743263589250e-02 2.50006730828071e-03 
2.61583308885594e+00 6.37502899522776e-02 2.48758145919665e-03 
2.64086498444308e+00 6.36253934151377e-02 2.47503025360813e-03 
2.66589688003022e+00 6.34996548456855e-02 2.46242129664435e-03 
2.69092877561736e+00 6.33730920654756e-02 2.44976199564702e-03 
2.71596067120450e+00 6.32457226119478e-02 2.43705955500395e-03 
2.74099256679164e+00 6.31175637317830e-02 2.42432097196134e-03 
2.76602446237877e+00 6.29886323750712e-02 2.41155303333537e-03 
2.79105635796591e+00 6.28589451902579e-02 2.39876034264473e-03 
2.81608825355305e+00 6.27285391910557e-02 2.38593629038827e-03 
2.84112014914019e+00 6.25975537469925e-02 2.37308390613118e-03 
2.86615204472733e+00 6.24660031049893e-02 2.36022678739565e-03 
2.89118394031446e+00 6.23339011971840e-02 2.34737065470756e-03 
2.91621583590160e+00 6.22012616406030e-02 2.33452101358890e-03 
2.94124773148874e+00 6.20680977373554e-02 2.32168315577540e-03 
2.96627962707588e+00 6.19344224753216e-02 2.30886216086723e-03 
2.99131152266302e+00 6.18002485293055e-02 2.29606060967780e-03 
3.01634341825016e+00 6.16656095109801e-02 2.28326936354174e-03 
3.04137531383729e+00 6.15306343467030e-02 2.27049059328106e-03 
3.06640720942443e+00 6.13953333186717e-02 2.25774657785219e-03 
3.09143910501157e+00 6.12597164114587e-02 2.24504138129143e-03 
3.11647100059871e+00 6.11237933160185e-02 2.23237887231005e-03 
3.14150289618585e+00 6.09875734339486e-02 2.21976272792689e-03 
3.16653479177298e+00 6.08510658819839e-02 2.20719643726108e-03 
3.19156668736012e+00 6.07142794967047e-02 2.19468330546183e-03 
3.21659858294726e+00 6.05772228394392e-02 2.18222948144369e-03 
3.24163047853440e+00 6.04399038211679e-02 2.16984437809042e-03 
3.26666237412154e+00 6.03023296405960e-02 2.15753435494208e-03 
3.29169426970868e+00 6.01645071998219e-02 2.14530137834336e-03 
3.31672616529581e+00 6.00264432293115e-02 2.13314640577659e-03 
3.34175806088295e+00 5.98881442861080e-02 2.12107039043531e-03 
3.36678995647009e+00 5.97496167525200e-02 2.10907427430830e-03 
3.39182185205723e+00 5.96108668352607e-02 2.09715898199556e-03 
3.41685374764437e+00 5.94719005650087e-02 2.08532541520700e-03 
3.44188564323151e+00 5.93327237963638e-02 2.07357444789532e-03 
3.46691753881864e+00 5.91933422081717e-02 2.06190692197862e-03 
3.49194943440578e+00 5.90537613041906e-02 2.05032364361110e-03 
3.51698132999292e+00 5.89139864140772e-02 2.03882537996018e-03 
3.54201322558006e+00 5.87740226946669e-02 2.02741286691548e-03 
3.56704512116720e+00 5.86338751300807e-02 2.01608680892088e-03 
3.59207701675433e+00 5.84935485331786e-02 2.00484618928755e-03 
3.61710891234147e+00 5.83530587741359e-02 1.99368366775333e-03 
3.64214080792861e+00 5.82124599133578e-02 1.98259996059278e-03 
3.66717270351575e+00 5.80717556333726e-02 1.97160491688970e-03 
3.69220459910289e+00 5.79309494630024e-02 1.96069899671830e-03 
3.71723649469003e+00 5.77900447802383e-02 1.94988260812776e-03 
3.74226839027716e+00 5.76490448152369e-02 1.93915610715283e-03 
3.76730028586430e+00 5.75079526534272e-02 1.92851979802941e-03 
3.79233218145144e+00 5.73667712387092e-02 1.91797393359418e-03 
3.81736407703858e+00 5.72255033767333e-02 1.90751871584893e-03 
3.84239597262572e+00 5.70841517382460e-02 1.89715429667397e-03 
3.86742786821286e+00 5.69427188624912e-02 1.88688077866997e-03 
3.89245976379999e+00 5.68012071606540e-02 1.87669821611400e-03 
3.91749165938713e+00 5.66596189193383e-02 1.86660661601750e-03 
3.94252355497427e+00 5.65179563040670e-02 1.85660593926833e-03 
3.96755545056141e+00 5.63762213627974e-02 1.84669610184767e-03 
3.99258734614855e+00 5.62344160294409e-02 1.83688067465115e-03 
4.01761924173568e+00 5.60925214146732e-02 1.82717470900499e-03 
4.04265113732282e+00 5.59504589418590e-02 1.81757629565187e-03 
4.06768303290996e+00 5.58082312006277e-02 1.80806814073209e-03 
4.09271492849710e+00 5.56658406663161e-02 1.79864994887750e-03 
4.11774682408424e+00 5.55232897034954e-02 1.78932138805075e-03 
4.14277871967138e+00 5.53805805694760e-02 1.78008209099612e-03 
4.16781061525851e+00 5.52377154177861e-02 1.77093165669359e-03 
4.19284251084565e+00 5.50946963016187e-02 1.76186965180703e-03 
4.21787440643279e+00 5.49515251772444e-02 1.75289561212372e-03 
4.24290630201993e+00 5.48082039073850e-02 1.74400904398043e-03 
4.26793819760707e+00 5.46647342645473e-02 1.73520942566982e-03 
4.29297009319420e+00 5.45211179343117e-02 1.72649620882447e-03 
4.31800198878134e+00 5.43773565185761e-02 1.71786881977505e-03 
4.34303388436848e+00 5.42334515387513e-02 1.70932665907216e-03 
4.36806577995562e+00 5.40894044392121e-02 1.70086911106233e-03 
4.39309767554276e+00 5.39452165889996e-02 1.69249554662400e-03 
4.41812957112990e+00 5.38008892848873e-02 1.68420549694818e-03 
4.44316146671703e+00 5.36564237233522e-02 1.67599865590113e-03 
4.46819336230417e+00 5.35118210024291e-02 1.66787451873050e-03 
4.49322525789131e+00 5.33670821555420e-02 1.65982625133175e-03 
4.51825715347845e+00 5.32222365242273e-02 1.65183178150441e-03 
4.54328904906559e+00 5.30773796801831e-02 1.64389466646207e-03 
4.56832094465273e+00 5.29325114322350e-02 1.63603704175804e-03 
4.59335284023986e+00 5.27876315540441e-02 1.62825813954007e-03 
4.61838473582700e+00 5.26427397858709e-02 1.62055719195434e-03 
4.64341663141414e+00 5.24978358354546e-02 1.61293343115885e-03 
4.66844852700128e+00 5.23529193797747e-02 1.60538608894113e-03 
4.69348042258842e+00 5.22079900659995e-02 1.59791439686420e-03 
4.71851231817555e+00 5.20630475132228e-02 1.59051758602105e-03 
4.74354421376269e+00 5.19180913134578e-02 1.58319488727792e-03 
4.76857610934983e+00 5.17731210333311e-02 1.57594553114405e-03 
4.79360800493697e+00 5.16281362151025e-02 1.56876874808568e-03 
4.81863990052411e+00 5.14831363783018e-02 1.56166376848872e-03 
4.84367179611125e+00 5.13381210207552e-02 1.55462982302087e-03 
4.86870369169838e+00 5.11930896201560e-02 1.54766614266792e-03 
4.89373558728552e+00 5.10480416350825e-02 1.54077195912607e-03 
4.91876748287266e+00 5.09029765064932e-02 1.53394650489411e-03 
4.94379937845980e+00 5.07578936587245e-02 1.52718901368087e-03 
4.96883127404694e+00 5.06127925009050e-02 1.52049872053937e-03 
4.99386316963407e+00 5.04676724279224e-02 1.51388209698818e-03 
5.01889506522121e+00 5.03225037682531e-02 1.50736018028689e-03 
5.04392696080835e+00 5.01772014835417e-02 1.50092605552549e-03 
5.06895885639549e+00 5.00317658044805e-02 1.49455603287728e-03 
5.09399075198263e+00 4.98861969384254e-02 1.48824936147527e-03 
5.11902264756977e+00 4.97404950699537e-02 1.48200529650125e-03 
5.14405454315690e+00 4.95946603621317e-02 1.47582309434763e-03 
5.16908643874404e+00 4.94486929579987e-02 1.46970201302322e-03 
5.19411833433118e+00 4.93025929817484e-02 1.46364131270186e-03 
5.21915022991832e+00 4.91563605400946e-02 1.45764025608473e-03 
5.24418212550546e+00 4.90099957233691e-02 1.45169810888436e-03 
5.26921402109260e+00 4.88634986067774e-02 1.44581414014407e-03 
5.29424591667973e+00 4.87168692514164e-02 1.43998762266287e-03 
5.31927781226687e+00 4.85701077054271e-02 1.43421783327381e-03 
5.34430970785401e+00 4.84232140049362e-02 1.42850405321221e-03 
5.36934160344115e+00 4.82761881751129e-02 1.42284556835497e-03 
5.39437349902829e+00 4.81290302310387e-02 1.41724166953754e-03 
5.41940539461543e+00 4.79817401786754e-02 1.41169165275663e-03 
5.44443729020256e+00 4.78343180156678e-02 1.40619481943829e-03 
5.46946918578970e+00 4.76867637322287e-02 1.40075047660645e-03 
5.49450108137684e+00 4.75390773118799e-02 1.39535793710776e-03 
5.51953297696398e+00 4.73912587322608e-02 1.39001651974793e-03 
5.54456487255112e+00 4.72433079658112e-02 1.38472554966935e-03 
5.56959676813825e+00 4.70952249804698e-02 1.37948435852721e-03 
5.59462866372539e+00 4.69470097402867e-02 1.37429228448197e-03 
5.61966055931253e+00 4.67986622060912e-02 1.36914867224778e-03 
5.64469245489967e+00 4.66501823360608e-02 1.36405287319566e-03 
5.66972435048681e+00 4.65015700863342e-02 1.35900424540338e-03 
5.69475624607395e+00 4.63528254115357e-02 1.35400215373369e-03 
5.71978814166108e+00 4.62039482653369e-02 1.34904596986504e-03 
5.74482003724822e+00 4.60549386009409e-02 1.34413507234772e-03 
5.76985193283536e+00 4.59057963715970e-02 1.33926884661815e-03 
5.79488382842250e+00 4.57565215310475e-02 1.33444668503456e-03 
5.81991572400964e+00 4.56071140339994e-02 1.32966798687608e-03 
5.84494761959678e+00 4.54575738365368e-02 1.32493215836050e-03 
5.86997951518391e+00 4.53079008965544e-02 1.32023861262951e-03 
5.89501141077105e+00 4.51580951741376e-02 1.31558676975070e-03 
5.92004330635819e+00 4.50081566319612e-02 1.31097605669067e-03 
5.94507520194533e+00 4.48580852356409e-02 1.30640590730327e-03 
5.97010709753247e+00 4.47078809541000e-02 1.30187576229267e-03 
5.99513899311960e+00 4.45575437598948e-02 1.29738975300004e-03 
6.02017088870674e+00 4.44070583176130e-02 1.29295815977818e-03 
6.04520278429388e+00 4.42563900356847e-02 1.28857595709925e-03 
6.07023467988102e+00 4.41055391891788e-02 1.28423151340138e-03 
6.09526657546816e+00 4.39545060547573e-02 1.27992429757660e-03 
6.12029847105530e+00 4.38032909110577e-02 1.27565378508359e-03 
6.14533036664243e+00 4.36518940390382e-02 1.27141945792850e-03 
6.17036226222957e+00 4.35003157223290e-02 1.26722080459644e-03 
6.19539415781671e+00 4.33485562475589e-02 1.26305731999098e-03 
6.22042605340385e+00 4.31966159046864e-02 1.25892850536245e-03 
6.24545794899099e+00 4.30444949873092e-02 1.25483386824242e-03 
6.27048984457812e+00 4.28921937929765e-02 1.25077292236964e-03 
6.29552174016526e+00 4.27397126234833e-02 1.24674518762097e-03 
6.32055363575240e+00 4.25870517851660e-02 1.24275018993486e-03 
6.34558553133954e+00 4.24342115891826e-02 1.23878746123983e-03 
6.37061742692668e+00 4.22811923517934e-02 1.23485653937646e-03 
6.39564932251382e+00 4.21279943946279e-02 1.23095696802403e-03 
6.42068121810095e+00 4.19746180449526e-02 1.22708829662168e-03 
6.44571311368809e+00 4.18210636359258e-02 1.22325008029325e-03 
6.47074500927523e+00 4.16673315068533e-02 1.21944187976847e-03 
6.49577690486237e+00 4.15134220034329e-02 1.21566326130731e-03 
6.52080880044951e+00 4.13593354779988e-02 1.21191379662079e-03 
6.54584069603665e+00 4.12050722897563e-02 1.20819306279492e-03 
6.57087259162378e+00 4.10506328050166e-02 1.20450064221278e-03 
6.59590448721092e+00 4.08960173974227e-02 1.20083612247915e-03 
6.62093638279806e+00 4.07412264481751e-02 1.19719909634270e-03 
6.64596827838520e+00 4.05862603462494e-02 1.19358916162088e-03 
6.67100017397234e+00 4.04311194886140e-02 1.19000592112293e-03 
6.69603206955947e+00 4.02758042804408e-02 1.18644898257566e-03 
6.72106396514661e+00 4.01203151353151e-02 1.18291795854778e-03 
6.74609586073375e+00 3.99646524754402e-02 1.17941246637704e-03 
6.77112775632089e+00 3.98088167318401e-02 1.17593212809628e-03 
6.79615965190803e+00 3.96528083445580e-02 1.17247657036147e-03 
6.82119154749517e+00 3.94966277628535e-02 1.16904542437955e-03 
6.84622344308230e+00 3.93402754453951e-02 1.16563832583816e-03 
6.87125533866944e+00 3.91837518604514e-02 1.16225491483547e-03 
6.89628723425658e+00 3.90270574860792e-02 1.15889483581137e-03 
6.92131912984372e+00 3.88701928103093e-02 1.15555773747889e-03 
6.94635102543086e+00 3.87131583313296e-02 1.15224327275749e-03 
6.97138292101799e+00 3.85559545576664e-02 1.14895109870674e-03 
6.99641481660513e+00 3.83985820083629e-02 1.14571404479373e-03 
7.02144671219227e+00 3.82409441563468e-02 1.14259215858181e-03 
7.04647860777941e+00 3.80828673784936e-02 1.13955187501281e-03 
7.07151050336655e+00 3.79243534846064e-02 1.13653139496773e-03 
7.09654239895369e+00 3.77654042903088e-02 1.13353035635689e-03 
7.12157429454082e+00 3.76060216176204e-02 1.13054840076046e-03 
7.14660619012796e+00 3.74462072955266e-02 1.12758517337126e-03 
7.17163808571510e+00 3.72859631605425e-02 1.12464032293976e-03 
7.19666998130224e+00 3.71252910572707e-02 1.12171350172011e-03 
7.22170187688938e+00 3.69641928389548e-02 1.11880436541644e-03 
7.24673377247652e+00 3.68026703680257e-02 1.11591257313110e-03 
7.27176566806365e+00 3.66407255166438e-02 1.11303778731363e-03 
7.29679756365079e+00 3.64783601672357e-02 1.11017967371061e-03 
7.32182945923793e+00 3.63155762130249e-02 1.10733790131688e-03 
7.34686135482507e+00 3.61523755585581e-02 1.10451214232766e-03 
7.37189325041221e+00 3.59887601202262e-02 1.10170207209110e-03 
7.39692514599934e+00 3.58247318267802e-02 1.09890736906271e-03 
7.42195704158648e+00 3.56602926198421e-02 1.09612771476062e-03 
7.44698893717362e+00 3.54954444544109e-02 1.09336279372134e-03 
7.47202083276076e+00 3.53301892993636e-02 1.09061229345695e-03 
7.49705272834790e+00 3.51645291379519e-02 1.08787590441322e-03 
7.52208462393504e+00 3.49984659682933e-02 1.08515331992836e-03 
7.54711651952217e+00 3.48320018038582e-02 1.08244423619327e-03 
7.57214841510931e+00 3.46651386739518e-02 1.07974835221237e-03 
7.59718031069645e+00 3.44978786241914e-02 1.07706536976508e-03 
7.62221220628359e+00 3.43302237169796e-02 1.07439499336895e-03 
7.64724410187073e+00 3.41621760319721e-02 1.07173693024337e-03 
7.67227599745786e+00 3.39937376665411e-02 1.06909089027371e-03 
7.69730789304500e+00 3.38249107362347e-02 1.06645658597676e-03 
7.72233978863214e+00 3.36556973752314e-02 1.06383373246716e-03 
7.74737168421928e+00 3.34860997367896e-02 1.06122204742473e-03 
7.77240357980642e+00 3.33161199936933e-02 1.05862125106217e-03 
