Energy(eV)           EEDF(eV^-(3/2))      Anisotropy(eV^-(3/2))
1.42175823603759e+00 1.86164991367801e-02 7.81922815488291e-03 
4.26527470811276e+00 1.71267385658523e-02 1.67126904737646e-02 
7.10879118018794e+00 1.55105454385971e-02 1.41481200778241e-02 
9.95230765226311e+00 1.36734447738377e-02 1.21269418805112e-02 
1.27958241243383e+01 1.17306762664079e-02 1.02978709394944e-02 
1.56393405964135e+01 9.71277519226671e-03 8.54249032928307e-03 
1.84828570684886e+01 7.63040274874440e-03 6.63402233952853e-03 
2.13263735405638e+01 5.75450291087797e-03 4.83890949631502e-03 
2.41698900126390e+01 4.13360165434114e-03 3.40602847345406e-03 
2.70134064847142e+01 2.88433644537056e-03 2.32233083100812e-03 
2.98569229567893e+01 1.93088337459249e-03 1.58173166812805e-03 
3.27004394288645e+01 1.28362461061771e-03 1.05872402334447e-03 
3.55439559009397e+01 8.49193572609358e-04 7.09704304002898e-04 
3.83874723730149e+01 5.64444387035504e-04 4.73731041936370e-04 
4.12309888450900e+01 3.74034682784776e-04 3.19192278418472e-04 
4.40745053171652e+01 2.48075853817363e-04 2.16937925914524e-04 
4.69180217892404e+01 1.65681318627975e-04 1.49965086395518e-04 
4.97615382613156e+01 1.13259288674256e-04 1.04370987125080e-04 
5.26050547333907e+01 7.85419036040771e-05 7.35933595909940e-05 
5.54485712054659e+01 5.49663289748280e-05 5.23659334161305e-05 
5.82920876775411e+01 3.87564883617482e-05 3.75981580983442e-05 
6.11356041496162e+01 2.75621315523367e-05 2.71544139080937e-05 
6.39791206216914e+01 1.97125373529449e-05 1.97734551728546e-05 
6.68226370937666e+01 1.42013750575262e-05 1.44790173557080e-05 
6.96661535658418e+01 1.02998823845936e-05 1.06745345317707e-05 
7.25096700379169e+01 7.53644323967297e-06 7.90455731636029e-06 
7.53531865099921e+01 5.55681323452363e-06 5.88038969183213e-06 
7.81967029820673e+01 4.11646639702413e-06 4.39515439053201e-06 
8.10402194541425e+01 3.06244283046889e-06 3.30014591284794e-06 
8.38837359262176e+01 2.29094457043148e-06 2.48701534893893e-06 
8.67272523982928e+01 1.72331135261761e-06 1.88185769677006e-06 
8.95707688703680e+01 1.30437850261091e-06 1.42688651434745e-06 
9.24142853424432e+01 9.89889819719748e-07 1.08626024294628e-06 
9.52578018145183e+01 7.53632639328982e-07 8.29181415829992e-07 
9.81013182865935e+01 5.75385515045034e-07 6.35026167224889e-07 
1.00944834758669e+02 4.40697310140986e-07 4.87736853055702e-07 
1.03788351230744e+02 3.38551169453384e-07 3.75878399129362e-07 
1.06631867702819e+02 2.60940262432729e-07 2.90573807067786e-07 
1.09475384174894e+02 2.01728560226056e-07 2.25407401147913e-07 
1.12318900646969e+02 1.56460118511986e-07 1.75401546602571e-07 
1.15162417119045e+02 1.21715475961806e-07 1.36954514300042e-07 
1.18005933591120e+02 9.49905575419125e-08 1.07268277666253e-07 
1.20849450063195e+02 7.43565768116705e-08 8.42995295705267e-08 
1.23692966535270e+02 5.83899423848361e-08 6.64554545661561e-08 
1.26536483007345e+02 4.59898587058007e-08 5.25627161851686e-08 
1.29379999479420e+02 3.63378676188038e-08 4.17030421919580e-08 
1.32223515951496e+02 2.87986644646342e-08 3.31941740812269e-08 
1.35067032423571e+02 2.28967446889285e-08 2.65000166497105e-08 
1.37910548895646e+02 1.82616163817718e-08 2.12196755557998e-08 
1.40754065367721e+02 1.46140965587179e-08 1.70373198259612e-08 
1.43597581839796e+02 1.17356860626260e-08 1.37149696454533e-08 
1.46441098311871e+02 9.46069580737937e-09 1.10603455401956e-08 
1.49284614783947e+02 7.64776254424730e-09 8.93757187712984e-09 
1.52128131256022e+02 6.19464685208123e-09 7.23742452924814e-09 
1.54971647728097e+02 5.02811810557011e-09 5.87288586780366e-09 
1.57815164200172e+02 4.09008729761317e-09 4.77562423017122e-09 
1.60658680672247e+02 3.33397135416337e-09 3.89186942072674e-09 
1.63502197144323e+02 2.72346257611606e-09 3.17828349056560e-09 
1.66345713616398e+02 2.22935437729921e-09 2.60116286899083e-09 
1.69189230088473e+02 1.82877451726061e-09 2.13326239720577e-09 
1.72032746560548e+02 1.50326628547218e-09 1.75328906453186e-09 
1.74876263032623e+02 1.23830920690251e-09 1.44397840563926e-09 
1.77719779504698e+02 1.02214872237173e-09 1.19177378870431e-09 
1.80563295976774e+02 8.45495424329847e-10 9.85650560720473e-10 
1.83406812448849e+02 7.00804985043291e-10 8.16912502954795e-10 
1.86250328920924e+02 5.82088711013992e-10 6.78465300119448e-10 
1.89093845392999e+02 4.84467074842325e-10 5.64689013338317e-10 
1.91937361865074e+02 4.04049334976133e-10 4.70984751244118e-10 
1.94780878337149e+02 3.37654892757076e-10 3.93685945855904e-10 
1.97624394809225e+02 2.82738617769367e-10 3.29777440280081e-10 
2.00467911281300e+02 2.37214507949961e-10 2.76820415757993e-10 
2.03311427753375e+02 1.99383860494793e-10 2.32811502975507e-10 
2.06154944225450e+02 1.67875732990529e-10 1.96149170619994e-10 
2.08998460697525e+02 1.41596640101767e-10 1.65535201337798e-10 
2.11841977169600e+02 1.19641033112930e-10 1.39931111032055e-10 
2.14685493641676e+02 1.01273297573361e-10 1.18472628059943e-10 
2.17529010113751e+02 8.58826818600981e-11 1.00458025126866e-10 
2.20372526585826e+02 7.29714027680458e-11 8.52901611109711e-11 
2.23216043057901e+02 6.20885537013207e-11 7.25189230749130e-11 
2.26059559529976e+02 5.28994182040803e-11 6.17427807442130e-11 
2.28903076002052e+02 4.51293929640047e-11 5.26385881846368e-11 
2.31746592474127e+02 3.85518609239516e-11 4.49359128432521e-11 
2.34590108946202e+02 3.29759643394481e-11 3.84119768524600e-11 
2.37433625418277e+02 2.82437532831703e-11 3.28786089361295e-11 
2.40277141890352e+02 2.42219377199641e-11 2.81802073621041e-11 
2.43120658362427e+02 2.07999408558154e-11 2.41850897088801e-11 
2.45964174834503e+02 1.78842627309063e-11 2.07841933475307e-11 
2.48807691306578e+02 1.53971242887953e-11 1.78850294655348e-11 
2.51651207778653e+02 1.32725673984485e-11 1.54102543249577e-11 
2.54494724250728e+02 1.14551836841367e-11 1.32944668388800e-11 
2.57338240722803e+02 9.89859656055589e-12 1.14832338169054e-11 
2.60181757194878e+02 8.56397791478489e-12 9.93071094167997e-12 
2.63025273666954e+02 7.41824437432265e-12 8.59856291021497e-12 
2.65868790139029e+02 6.43363033174933e-12 7.45404299908724e-12 
2.68712306611104e+02 5.58643203777594e-12 6.46969923549927e-12 
2.71555823083179e+02 4.85670872941528e-12 5.62203394902827e-12 
2.74399339555254e+02 4.22740420323407e-12 4.89129754821208e-12 
2.77242856027329e+02 3.68413730604347e-12 4.26054825706220e-12 
2.80086372499405e+02 3.21458482737773e-12 3.71550924898206e-12 
2.82929888971480e+02 2.80833398751892e-12 3.24391474481618e-12 
2.85773405443555e+02 2.45644500521756e-12 2.83541043942472e-12 
2.88616921915630e+02 2.15134692298786e-12 2.48108359976499e-12 
2.91460438387705e+02 1.88652735540238e-12 2.17336597189171e-12 
2.94303954859781e+02 1.65637465318329e-12 1.90564515706799e-12 
2.97147471331856e+02 1.45562990367371e-12 1.67275283838849e-12 
2.99990987803931e+02 1.28037520673843e-12 1.46974763916021e-12 
3.02834504276006e+02 1.12715575010743e-12 1.29254732930136e-12 
3.05678020748081e+02 9.93043121220915e-13 1.13763543843606e-12 
3.08521537220156e+02 8.75559280448093e-13 1.00206621812051e-12 
3.11365053692232e+02 7.72572272968544e-13 8.83326764538030e-13 
3.14208570164307e+02 6.82220535760866e-13 7.79258393504619e-13 
3.17052086636382e+02 6.02899928605693e-13 6.87973916267134e-13 
3.19895603108457e+02 5.33207989756387e-13 6.07849539522235e-13 
3.22739119580532e+02 4.71934302051606e-13 5.37463954107124e-13 
3.25582636052607e+02 4.18019296471017e-13 4.75592266257288e-13 
3.28426152524683e+02 3.70547053381702e-13 4.21160996315067e-13 
3.31269668996758e+02 3.28714789700324e-13 3.73243535720238e-13 
3.34113185468833e+02 2.91827486073813e-13 3.31026814246549e-13 
3.36956701940908e+02 2.59275206860931e-13 2.93807905327261e-13 
3.39800218412983e+02 2.30529085555221e-13 2.60969250175952e-13 
3.42643734885059e+02 2.05124415469602e-13 2.31976122699317e-13 
3.45487251357134e+02 1.82657646520620e-13 2.06358156459381e-13 
3.48330767829209e+02 1.62773740237113e-13 1.83707452514179e-13 
3.51174284301284e+02 1.45163920423749e-13 1.63664763337777e-13 
3.54017800773359e+02 1.29556188755515e-13 1.45918081329376e-13 
3.56861317245434e+02 1.15713638008169e-13 1.30192274312842e-13 
3.59704833717510e+02 1.03427317073459e-13 1.16248033588030e-13 
3.62548350189585e+02 9.25149644005995e-14 1.03874076011520e-13 
3.65391866661660e+02 8.28156244071782e-14 9.28863619984536e-14 
3.68235383133735e+02 7.41886948825546e-14 8.31222137224655e-14 
3.71078899605810e+02 6.65098522641924e-14 7.44397384802432e-14 
3.73922416077885e+02 5.96703331109864e-14 6.67133838886467e-14 
3.76765932549961e+02 5.35738394477124e-14 5.98335183039297e-14 
3.79609449022036e+02 4.81359940669229e-14 5.37030646347219e-14 
3.82452965494111e+02 4.32819812859344e-14 4.82371835102186e-14 
3.85296481966186e+02 3.89461340826542e-14 4.33606205556429e-14 
3.88139998438261e+02 3.50701475001422e-14 3.90072990548376e-14 
3.90983514910336e+02 3.16027959898080e-14 3.51183387478507e-14 
3.93827031382412e+02 2.84985691195329e-14 3.16419831809078e-14 
3.96670547854487e+02 2.57174441573616e-14 2.85321371563081e-14 
3.99514064326562e+02 2.32238325523456e-14 2.57477243624823e-14 
4.02357580798637e+02 2.09858903717767e-14 2.32513635781025e-14 
4.05201097270712e+02 1.89750104239366e-14 2.10105879828536e-14 
4.08044613742787e+02 1.71671846725970e-14 1.89970274093313e-14 
4.10888130214863e+02 1.55409377983304e-14 1.71866669921125e-14 
4.13731646686938e+02 1.40772508667734e-14 1.55579972592486e-14 
4.16575163159013e+02 1.27590949346018e-14 1.40919838815818e-14 
4.19418679631088e+02 1.15713724718889e-14 1.27715562381055e-14 
4.22262196103163e+02 1.05005536247355e-14 1.15815832968428e-14 
4.25105712575239e+02 9.53463157193903e-15 1.05084732414044e-14 
4.27949229047314e+02 8.66283836956072e-15 9.54016358931849e-15 
4.30792745519389e+02 7.87560961860403e-15 8.66581746910179e-15 
4.33636261991464e+02 7.16436036574735e-15 7.87581468846401e-15 
4.36479778463539e+02 6.52145734821328e-15 7.16150859187161e-15 
4.39323294935614e+02 5.94004245382685e-15 6.51502742736105e-15 
4.42166811407690e+02 5.41334985628154e-15 5.92983367986794e-15 
4.45010327879765e+02 4.93572652492546e-15 5.39984324271924e-15 
4.47853844351840e+02 4.50241280832081e-15 4.91954191164309e-15 
4.50697360823915e+02 4.10910827510839e-15 4.48408585512669e-15 
4.53540877295990e+02 3.75196406344901e-15 4.08909712334075e-15 
4.56384393768065e+02 3.42749983886660e-15 3.73066327497637e-15 
4.59227910240141e+02 3.13259777585423e-15 3.40524548001486e-15 
4.62071426712216e+02 2.86443627819676e-15 3.10967839972808e-15 
4.64914943184291e+02 2.62048523853834e-15 2.84109700153383e-15 
4.67758459656366e+02 2.39845301853982e-15 2.59693674749269e-15 
4.70601976128441e+02 2.19628268818732e-15 2.37487539770378e-15 
4.73445492600517e+02 2.01210948338057e-15 2.17283368210881e-15 
4.76289009072592e+02 1.84425775109650e-15 1.98892925288953e-15 
4.79132525544667e+02 1.69120665256451e-15 1.82147781476057e-15 
4.81976042016742e+02 1.55158758841097e-15 1.66895612518719e-15 
4.84819558488817e+02 1.42415648685259e-15 1.53000003706710e-15 
4.87663074960892e+02 1.30779208136543e-15 1.40336451292065e-15 
4.90506591432968e+02 1.20147507726711e-15 1.28791989100727e-15 
4.93350107905043e+02 1.10428741917652e-15 1.18263269024957e-15 
4.96193624377118e+02 1.01539486478730e-15 1.08656766604152e-15 
4.99037140849193e+02 9.34046252881078e-16 9.98856830272661e-16 
5.01880657321268e+02 8.59544682721668e-16 9.18649235859209e-16 
5.04724173793343e+02 7.91212783727485e-16 8.45194829098543e-16 
5.07567690265419e+02 7.28521010513078e-16 7.77837332277423e-16 
5.10411206737494e+02 6.70988825451717e-16 7.16052090310821e-16 
5.13254723209569e+02 6.18175982656009e-16 6.59363488735098e-16 
5.16098239681644e+02 5.69682737989740e-16 6.07335527854677e-16 
5.18941756153719e+02 5.25142690586881e-16 5.59572717741121e-16 
5.21785272625795e+02 4.84222948044713e-16 5.15712340014829e-16 
5.24628789097870e+02 4.46618240003876e-16 4.75425175761237e-16 
5.27472305569945e+02 4.12051048772567e-16 4.38409144861257e-16 
5.30315822042020e+02 3.80266763078833e-16 4.04389899577816e-16 
5.33159338514095e+02 3.51033781957965e-16 3.73115589712901e-16 
5.36002854986170e+02 3.24139520089319e-16 3.44357347912851e-16 
5.38846371458245e+02 2.99390490942575e-16 3.17904976037621e-16 
5.41689887930321e+02 2.76609010145124e-16 2.93567342920331e-16 
5.44533404402396e+02 2.55633262490938e-16 2.71168825375692e-16 
5.47376920874471e+02 2.36314578170289e-16 2.50549634880306e-16 
5.50220437346546e+02 2.18517487200652e-16 2.31562877320915e-16 
5.53063953818621e+02 2.02117466395872e-16 2.14074821485054e-16 
5.55907470290697e+02 1.87000984026408e-16 1.97962466200959e-16 
5.58750986762772e+02 1.73063634185244e-16 1.83113760236327e-16 
5.61594503234847e+02 1.60210174019476e-16 1.69425584857078e-16 
5.64438019706922e+02 1.48352977560443e-16 1.56803931748479e-16 
5.67281536178997e+02 1.37412067671157e-16 1.45162225450345e-16 
5.70125052651072e+02 1.27313833984942e-16 1.34421467163996e-16 
5.72968569123148e+02 1.17991061192692e-16 1.24508852077608e-16 
5.75812085595223e+02 1.09381863544998e-16 1.15357926751991e-16 
5.78655602067298e+02 1.01429704798815e-16 1.06907458786480e-16 
5.81499118539373e+02 9.40825090799515e-17 9.91015484739208e-17 
5.84342635011448e+02 8.72926769086678e-17 9.18884130319484e-17 
5.87186151483524e+02 8.10153632921873e-17 8.52208916890524e-17 
5.90029667955599e+02 7.52078641507016e-17 7.90571464894984e-17 
5.92873184427674e+02 6.98336714376521e-17 7.33571301588228e-17 
5.95716700899749e+02 6.48593342604603e-17 6.80846248871913e-17 
5.98560217371824e+02 6.02539538537322e-17 6.32064797911446e-17 
6.01403733843899e+02 5.59892046546977e-17 5.86920653198717e-17 
6.04247250315974e+02 5.20389113191273e-17 5.45133313674603e-17 
6.07090766788050e+02 4.83790663535311e-17 5.06443506064823e-17 
6.09934283260125e+02 4.49874754857710e-17 4.70613671563409e-17 
6.12777799732200e+02 4.18437724671616e-17 4.37424139536857e-17 
6.15621316204275e+02 3.89291214511022e-17 4.06673535952204e-17 
6.18464832676350e+02 3.62262294613759e-17 3.78175574114050e-17 
6.21308349148426e+02 3.37190963634640e-17 3.51759398116277e-17 
6.24151865620501e+02 3.13930254018849e-17 3.27266888350208e-17 
6.26995382092576e+02 2.92344129436003e-17 3.04552950897396e-17 
6.29838898564651e+02 2.72307574123129e-17 2.83483252933817e-17 
6.32682415036726e+02 2.53704823015078e-17 2.63934467057481e-17 
6.35525931508801e+02 2.36429437734211e-17 2.45792366072230e-17 
6.38369447980877e+02 2.20382815298537e-17 2.28952029669174e-17 
6.41212964452952e+02 2.05474252950841e-17 2.13316239933163e-17 
6.44056480925027e+02 1.91619690359642e-17 1.98795656506746e-17 
6.46899997397102e+02 1.78741765090249e-17 1.85307463992091e-17 
6.49743513869177e+02 1.66768750702043e-17 1.72775518295524e-17 
6.52587030341252e+02 1.55634604666298e-17 1.61129205406389e-17 
6.55430546813328e+02 1.45278070950233e-17 1.50303572773667e-17 
6.58274063285403e+02 1.35642720640769e-17 1.40238365188379e-17 
6.61117579757478e+02 1.26676192825260e-17 1.30878133200119e-17 
6.63961096229553e+02 1.18330232722501e-17 1.22171414001874e-17 
6.66804612701628e+02 1.10560042755308e-17 1.14070823564134e-17 
6.69648129173704e+02 1.03324316244228e-17 1.06532364027733e-17 
6.72491645645779e+02 9.65846930913791e-18 9.95155055234544e-18 
6.75335162117854e+02 9.03057862445084e-18 9.29826020456306e-18 
6.78178678589929e+02 8.44547195665893e-18 8.68989589010932e-18 
6.81022195062004e+02 7.90011508231012e-18 8.12323370425001e-18 
6.83865711534079e+02 7.39168792682798e-18 7.59530109502921e-18 
6.86709228006155e+02 6.91758656533503e-18 7.10333478940588e-18 
6.89552744478230e+02 6.47538986967509e-18 6.64478576854250e-18 
6.92396260950305e+02 6.06286125329444e-18 6.21728351951328e-18 
6.95239777422380e+02 5.67792029638358e-18 5.81864031865457e-18 
6.98083293894455e+02 5.31864427030447e-18 5.44682082855306e-18 
7.00926810366530e+02 4.98324397522480e-18 5.09994579141153e-18 
7.03770326838606e+02 4.67006507419558e-18 4.77626614724371e-18 
7.06613843310681e+02 4.37756749871820e-18 4.47416622333887e-18 
7.09457359782756e+02 4.10432661808527e-18 4.19214168026007e-18 
7.12300876254831e+02 3.84901566974256e-18 3.92880227021990e-18 
7.15144392726906e+02 3.61040678574702e-18 3.68285302688055e-18 
7.17987909198981e+02 3.38735598982862e-18 3.45309665433710e-18 
7.20831425671057e+02 3.17880409966348e-18 3.23841746839955e-18 
7.23674942143132e+02 2.98376390391432e-18 3.03778346855064e-18 
7.26518458615207e+02 2.80132095635909e-18 2.85023261529365e-18 
7.29361975087282e+02 2.63062260614484e-18 2.67487462961030e-18 
7.32205491559357e+02 2.47087869756684e-18 2.51087925552705e-18 
7.35049008031433e+02 2.32135217718117e-18 2.35747782499817e-18 
7.37892524503508e+02 2.18135971112635e-18 2.21395320910953e-18 
7.40736040975583e+02 2.05026363516144e-18 2.07964118075358e-18 
7.43579557447658e+02 1.92747249980354e-18 1.95392180355021e-18 
7.46423073919733e+02 1.81243416508719e-18 1.83622062000593e-18 
7.49266590391808e+02 1.70463628240692e-18 1.72600126570016e-18 
7.52110106863884e+02 1.60360036590913e-18 1.62276650668260e-18 
7.54953623335959e+02 1.50888221873987e-18 1.52605189885712e-18 
7.57797139808034e+02 1.42006683838962e-18 1.43542669472707e-18 
7.60640656280109e+02 1.33676879405849e-18 1.35048839445949e-18 
7.63484172752184e+02 1.25862784482220e-18 1.27086353857011e-18 
7.66327689224259e+02 1.18530927405624e-18 1.19620302030732e-18 
7.69171205696335e+02 1.11650011750157e-18 1.12618260422673e-18 
7.72014722168410e+02 1.05190948066917e-18 1.06049884327611e-18 
7.74858238640485e+02 9.91265294381054e-19 9.98870048488014e-19 
7.77701755112560e+02 9.34314555910200e-19 9.41032923805894e-19 
7.80545271584635e+02 8.80820519108199e-19 8.86743130852025e-19 
7.83388788056710e+02 8.30563132368137e-19 8.35772033327014e-19 
7.86232304528786e+02 7.83336241003661e-19 7.87907241066017e-19 
7.89075821000861e+02 7.38947851266731e-19 7.42950273095842e-19 
7.91919337472936e+02 6.97218104470885e-19 7.00716896192402e-19 
7.94762853945011e+02 6.57979469481459e-19 6.61034058781365e-19 
7.97606370417086e+02 6.21074993776964e-19 6.23740153739661e-19 
8.00449886889162e+02 5.86358486161714e-19 5.88682880748079e-19 
8.03293403361237e+02 5.53692306067628e-19 5.55720273004546e-19 
8.06136919833312e+02 5.22948666364145e-19 5.24719409237336e-19 
8.08980436305387e+02 4.94008144931631e-19 4.95557292580670e-19 
8.11823952777462e+02 4.66759395850642e-19 4.68118931629730e-19 
8.14667469249537e+02 4.41097978519189e-19 4.42297214207787e-19 
8.17510985721613e+02 4.16926475157017e-19 4.17991652057091e-19 
8.20354502193688e+02 3.94153475104928e-19 3.95108603358096e-19 
8.23198018665763e+02 3.72693679358246e-19 3.73560183097170e-19 
8.26041535137838e+02 3.52467018794314e-19 3.53264459732394e-19 
8.28885051609913e+02 3.33398747204029e-19 3.34144508483396e-19 
8.31728568081988e+02 3.15418675207511e-19 3.16128585210235e-19 
8.34572084554064e+02 2.98461253088565e-19 2.99149303035047e-19 
8.37415601026139e+02 2.82464904739050e-19 2.83143786017013e-19 
8.40259117498214e+02 2.67372101466787e-19 2.68052952132256e-19 
8.43102633970289e+02 2.53128782530292e-19 2.53821648772303e-19 
8.45946150442364e+02 2.39684420996380e-19 2.40398027124527e-19 
8.48789666914440e+02 2.26991519365229e-19 2.27733660700722e-19 
8.51633183386515e+02 2.15005668529576e-19 2.15782997391589e-19 
8.54476699858590e+02 2.03685108738301e-19 2.04503460933514e-19 
8.57320216330665e+02 1.92990782804499e-19 1.93854967622519e-19 
8.60163732802740e+02 1.82885954273121e-19 1.83800010546290e-19 
8.63007249274815e+02 1.73336256105408e-19 1.74303233524665e-19 
8.65850765746891e+02 1.64309358886842e-19 1.65331523669420e-19 
8.68694282218966e+02 1.55775013547939e-19 1.56853683942175e-19 
8.71537798691041e+02 1.47704758267243e-19 1.48840531639231e-19 
8.74381315163116e+02 1.40071954245974e-19 1.41264590233619e-19 
8.77224831635191e+02 1.32851528631207e-19 1.34099618964222e-19 
8.80068348107266e+02 1.26017764777181e-19 1.27321843709285e-19 
8.82911864579342e+02 1.19545237993551e-19 1.20910229043456e-19 
