Energy(eV)           EEDF(eV^-(3/2))      Anisotropy(eV^-(3/2))
3.35237557720222e-03 4.99039265346057e-01 4.20305341915484e-05 
1.00571267316067e-02 4.98979269122568e-01 5.93151102752412e-05 
1.67618778860111e-02 4.98915241208058e-01 7.93130918668715e-05 
2.34666290404155e-02 4.98852817538045e-01 9.27924458307751e-05 
3.01713801948200e-02 4.98793412848947e-01 1.01927252282761e-04 
3.68761313492244e-02 4.98739136327260e-01 1.07886937522822e-04 
4.35808825036288e-02 4.98689567905243e-01 1.12826704244566e-04 
5.02856336580333e-02 4.98643251596665e-01 1.16113419759260e-04 
5.69903848124377e-02 4.98601643544760e-01 1.16123082420539e-04 
6.36951359668421e-02 4.98565732495640e-01 1.12745487585558e-04 
7.03998871212466e-02 4.98536337078818e-01 1.07778373715757e-04 
7.71046382756510e-02 4.98511756886841e-01 1.03740006706554e-04 
8.38093894300555e-02 4.98490688352549e-01 9.92610598690406e-05 
9.05141405844599e-02 4.98473339183515e-01 9.26349670849600e-05 
9.72188917388643e-02 4.98459744206603e-01 8.41554560218668e-05 
1.03923642893269e-01 4.98449597508213e-01 7.72127480786436e-05 
1.10628394047673e-01 4.98441004508029e-01 7.27722244210213e-05 
1.17333145202078e-01 4.98433970870102e-01 6.73866612880903e-05 
1.24037896356482e-01 4.98428380162225e-01 6.28904835834354e-05 
1.30742647510887e-01 4.98423556642929e-01 5.96380923589610e-05 
1.37447398665291e-01 4.98419499451552e-01 5.57076414613814e-05 
1.44152149819695e-01 4.98416190587196e-01 5.11021132387324e-05 
1.50856900974100e-01 4.98413594908370e-01 4.66515480820965e-05 
1.57561652128504e-01 4.98411485157198e-01 4.31613470594154e-05 
1.64266403282909e-01 4.98409737491309e-01 3.98383738761156e-05 
1.70971154437313e-01 4.98408335224127e-01 3.68225465632575e-05 
1.77675905591718e-01 4.98407149515457e-01 3.47523087697094e-05 
1.84380656746122e-01 4.98406116213551e-01 3.29140030708190e-05 
1.91085407900526e-01 4.98405231996299e-01 3.08479459977696e-05 
1.97790159054931e-01 4.98404491614358e-01 2.87872152975740e-05 
2.04494910209335e-01 4.98403864965456e-01 2.80213265008587e-05 
2.11199661363740e-01 4.98403237556756e-01 2.84832916712227e-05 
2.17904412518144e-01 4.98402610358784e-01 2.89162430619497e-05 
2.24609163672549e-01 4.98401984311312e-01 2.93201809760751e-05 
2.31313914826953e-01 4.98401360323353e-01 2.96951057317656e-05 
2.38018665981358e-01 4.98400739273163e-01 3.00410176420695e-05 
2.44723417135762e-01 4.98400122008245e-01 3.03579170473542e-05 
2.51428168290166e-01 4.98399509345342e-01 3.18981196890933e-05 
2.58132919444571e-01 4.98398802669307e-01 3.51842195062858e-05 
2.64837670598975e-01 4.98397947643801e-01 3.90531591995673e-05 
2.71542421753380e-01 4.98396926670519e-01 4.30724034800852e-05 
2.78247172907784e-01 4.98395721330688e-01 4.72418568050745e-05 
2.84951924062189e-01 4.98394312385168e-01 5.15614437193697e-05 
2.91656675216593e-01 4.98392679774562e-01 5.60311025339650e-05 
2.98361426370997e-01 4.98390802619345e-01 6.07991413581709e-05 
3.05066177525402e-01 4.98388640234511e-01 6.62961160145456e-05 
3.11770928679806e-01 4.98386106819286e-01 7.23561518019400e-05 
3.18475679834211e-01 4.98383165843554e-01 7.86146628077852e-05 
3.25180430988615e-01 4.98379779343851e-01 8.50715476023417e-05 
3.31885182143020e-01 4.98375907923844e-01 9.17267153592721e-05 
3.38589933297424e-01 4.98371510754857e-01 9.85800818942932e-05 
3.45294684451829e-01 4.98366545576465e-01 1.05631566770834e-04 
3.51999435606233e-01 4.98360968697155e-01 1.13232528688122e-04 
3.58704186760637e-01 4.98354663632354e-01 1.21447035418293e-04 
3.65408937915042e-01 4.98347554810942e-01 1.29968099471056e-04 
3.72113689069446e-01 4.98339581585644e-01 1.38718384333352e-04 
3.78818440223851e-01 4.98330681392959e-01 1.47697766593288e-04 
3.85523191378255e-01 4.98320789754725e-01 1.56906118847195e-04 
3.92227942532660e-01 4.98309840279844e-01 1.66343308226299e-04 
3.98932693687064e-01 4.98297764666169e-01 1.75944573704750e-04 
4.05637444841468e-01 4.98284510835792e-01 1.85586744568340e-04 
4.12342195995873e-01 4.98270045619806e-01 1.95333248973350e-04 
4.19046947150277e-01 4.98254300930017e-01 2.05295957583999e-04 
4.25751698304682e-01 4.98237206971613e-01 2.15474710402184e-04 
4.32456449459086e-01 4.98218692245642e-01 2.25869337078245e-04 
4.39161200613491e-01 4.98198683551690e-01 2.36479656269846e-04 
4.45865951767895e-01 4.98177105990746e-01 2.47305475013497e-04 
4.52570702922300e-01 4.98153882968288e-01 2.58346588102913e-04 
4.59275454076704e-01 4.98128936197572e-01 2.69602777472320e-04 
4.65980205231108e-01 4.98102185703154e-01 2.81073811578970e-04 
4.72684956385513e-01 4.98073549824648e-01 2.92759444795733e-04 
4.79389707539917e-01 4.98042945220728e-01 3.04659416785743e-04 
4.86094458694322e-01 4.98010286873385e-01 3.16773451880755e-04 
4.92799209848726e-01 4.97975488092454e-01 3.29101258460016e-04 
4.99503961003131e-01 4.97938460520412e-01 3.41592895894535e-04 
5.06208712157535e-01 4.97899135943574e-01 3.54181990144602e-04 
5.12913463311939e-01 4.97857454736453e-01 3.66915804955582e-04 
5.19618214466344e-01 4.97813327389769e-01 3.79856136923169e-04 
5.26322965620748e-01 4.97766662839831e-01 3.93002621077628e-04 
5.33027716775153e-01 4.97717368474477e-01 4.06354873722270e-04 
5.39732467929557e-01 4.97665350139325e-01 4.19912491808352e-04 
5.46437219083962e-01 4.97610512144354e-01 4.33675052307440e-04 
5.53141970238366e-01 4.97552757270817e-01 4.47642111571079e-04 
5.59846721392770e-01 4.97491986778505e-01 4.61813204688746e-04 
5.66551472547175e-01 4.97428100413365e-01 4.76187844835807e-04 
5.73256223701579e-01 4.97360996415492e-01 4.90765522612196e-04 
5.79960974855984e-01 4.97290571527495e-01 5.05545705380172e-04 
5.86665726010388e-01 4.97216721003261e-01 5.20527836592474e-04 
5.93370477164793e-01 4.97139338617116e-01 5.35711335112816e-04 
6.00075228319197e-01 4.97058316673402e-01 5.51095594530353e-04 
6.06779979473602e-01 4.96973546016481e-01 5.66679982469945e-04 
6.13484730628006e-01 4.96884916041172e-01 5.82463839895109e-04 
6.20189481782410e-01 4.96792314703644e-01 5.98446480407849e-04 
6.26894232936815e-01 4.96695628532759e-01 6.14627189536899e-04 
6.33598984091219e-01 4.96594742641895e-01 6.31005224020076e-04 
6.40303735245624e-01 4.96489540741254e-01 6.47579811093768e-04 
6.47008486400028e-01 4.96379905150659e-01 6.64350147765729e-04 
6.53713237554433e-01 4.96265716812865e-01 6.81315400085100e-04 
6.60417988708837e-01 4.96146855307385e-01 6.98474702408682e-04 
6.67122739863242e-01 4.96023198864856e-01 7.15827156666198e-04 
6.73827491017646e-01 4.95894624381939e-01 7.33371831619521e-04 
6.80532242172050e-01 4.95761007436784e-01 7.51107762116012e-04 
6.87236993326455e-01 4.95622222305056e-01 7.69033948343942e-04 
6.93941744480859e-01 4.95478141976549e-01 7.87149355080268e-04 
7.00646495635264e-01 4.95328638172383e-01 8.05421121690786e-04 
7.07351246789668e-01 4.95173605168446e-01 8.23827030580182e-04 
7.14055997944073e-01 4.95012929749491e-01 8.42396443819080e-04 
7.20760749098477e-01 4.94846481760520e-01 8.61148758475691e-04 
7.27465500252881e-01 4.94674129877130e-01 8.80082767197667e-04 
7.34170251407286e-01 4.94495741625428e-01 8.99197223430566e-04 
7.40875002561690e-01 4.94311183402589e-01 9.18490840677386e-04 
7.47579753716095e-01 4.94120320498067e-01 9.37962291755881e-04 
7.54284504870499e-01 4.93923017115479e-01 9.57610208058886e-04 
7.60989256024904e-01 4.93719136395168e-01 9.77433178814488e-04 
7.67694007179308e-01 4.93508540437458e-01 9.97429750345581e-04 
7.74398758333713e-01 4.93291090326607e-01 1.01759842533317e-03 
7.81103509488117e-01 4.93066646155476e-01 1.03793766208500e-03 
7.87808260642521e-01 4.92835067050923e-01 1.05844587380120e-03 
7.94513011796926e-01 4.92596211199925e-01 1.07912142784658e-03 
8.01217762951330e-01 4.92349935876451e-01 1.09996264502775e-03 
8.07922514105735e-01 4.92096097469084e-01 1.12096779887484e-03 
8.14627265260139e-01 4.91834551509411e-01 1.14213511492293e-03 
8.21332016414544e-01 4.91565152701185e-01 1.16346277000477e-03 
8.28036767568948e-01 4.91287754950272e-01 1.18494889154971e-03 
8.34741518723352e-01 4.91002211395393e-01 1.20659155688184e-03 
8.41446269877757e-01 4.90708374439659e-01 1.22838879253731e-03 
8.48151021032161e-01 4.90406095782931e-01 1.25033857357796e-03 
8.54855772186566e-01 4.90095226454986e-01 1.27243882291731e-03 
8.61560523340970e-01 4.89775616849522e-01 1.29468741066231e-03 
8.68265274495375e-01 4.89447116758987e-01 1.31708215345323e-03 
8.74970025649779e-01 4.89109575410261e-01 1.33962081381859e-03 
8.81674776804183e-01 4.88762841501182e-01 1.36230109954632e-03 
8.88379527958588e-01 4.88406763237932e-01 1.38512066305894e-03 
8.95084279112992e-01 4.88041188373288e-01 1.40807710080477e-03 
9.01789030267397e-01 4.87665964245737e-01 1.43116795265966e-03 
9.08493781421801e-01 4.87280937819474e-01 1.45439070134537e-03 
9.15198532576206e-01 4.86885955725273e-01 1.47774277186023e-03 
9.21903283730610e-01 4.86480864302252e-01 1.50122153092552e-03 
9.28608034885015e-01 4.86065509640518e-01 1.52482428644861e-03 
9.35312786039419e-01 4.85639737624718e-01 1.54854828699763e-03 
9.42017537193823e-01 4.85203393978472e-01 1.57239072130072e-03 
9.48722288348228e-01 4.84756324309725e-01 1.59634871775956e-03 
9.55427039502632e-01 4.84298374156980e-01 1.62041934397963e-03 
9.62131790657037e-01 4.83829389036456e-01 1.64459960632408e-03 
9.68836541811441e-01 4.83349214490134e-01 1.66888644948491e-03 
9.75541292965846e-01 4.82857696134722e-01 1.69327675607685e-03 
9.82246044120250e-01 4.82354679711519e-01 1.71776734625326e-03 
9.88950795274654e-01 4.81840011137189e-01 1.74235497734200e-03 
9.95655546429059e-01 4.81313536555433e-01 1.76703634350857e-03 
1.00236029758346e+00 4.80775102389574e-01 1.79057168499424e-03 
1.00906504873787e+00 4.80226055409074e-01 1.81275779768757e-03 
1.01576979989227e+00 4.79666543556428e-01 1.83479483512843e-03 
1.02247455104668e+00 4.79096457781580e-01 1.85688990052817e-03 
1.02917930220108e+00 4.78515689510819e-01 1.87904025996107e-03 
1.03588405335549e+00 4.77924130682259e-01 1.90124313753980e-03 
1.04258880450989e+00 4.77321673781781e-01 1.92349571537678e-03 
1.04929355566429e+00 4.76708211879410e-01 1.94579513356044e-03 
1.05599830681870e+00 4.76083638666132e-01 1.96813849015086e-03 
1.06270305797310e+00 4.75447848491145e-01 1.99052284119147e-03 
1.06940780912751e+00 4.74800736399528e-01 2.01294520073694e-03 
1.07611256028191e+00 4.74142198170344e-01 2.03540254090543e-03 
1.08281731143632e+00 4.73472130355142e-01 2.05789179194479e-03 
1.08952206259072e+00 4.72790430316874e-01 2.08040984231828e-03 
1.09622681374513e+00 4.72096996269212e-01 2.10295353881304e-03 
1.10293156489953e+00 4.71391727316246e-01 2.12551968666660e-03 
1.10963631605393e+00 4.70674523492580e-01 2.14810504971300e-03 
1.11634106720834e+00 4.69945285803788e-01 2.17070635055181e-03 
1.12304581836274e+00 4.69203916267244e-01 2.19332027073764e-03 
1.12975056951715e+00 4.68450317953306e-01 2.21594345099076e-03 
1.13645532067155e+00 4.67684395026839e-01 2.23857249142924e-03 
1.14316007182596e+00 4.66906052789087e-01 2.26120395182544e-03 
1.14986482298036e+00 4.66115197719855e-01 2.28383435188451e-03 
1.15656957413477e+00 4.65311737520011e-01 2.30646017154380e-03 
1.16327432528917e+00 4.64495581154289e-01 2.32907785129783e-03 
1.16997907644357e+00 4.63666638894383e-01 2.35168379254772e-03 
1.17668382759798e+00 4.62824822362309e-01 2.37427435797316e-03 
1.18338857875238e+00 4.61970044574042e-01 2.39684587192876e-03 
1.19009332990679e+00 4.61102219983391e-01 2.41939462086594e-03 
1.19679808106119e+00 4.60221264526120e-01 2.44193887320897e-03 
1.20350283221560e+00 4.59327063524681e-01 2.46543715655207e-03 
1.21020758337000e+00 4.58418122211245e-01 2.48985101834215e-03 
1.21691233452441e+00 4.57494337249690e-01 2.51423075498467e-03 
1.22361708567881e+00 4.56555607252786e-01 2.53857170222686e-03 
1.23032183683321e+00 4.55601832843849e-01 2.56286914822147e-03 
1.23702658798762e+00 4.54632916718677e-01 2.58711833427505e-03 
1.24373133914202e+00 4.53648763707759e-01 2.61131445563454e-03 
1.25043609029643e+00 4.52649280838719e-01 2.63545266231448e-03 
1.25714084145083e+00 4.51634377398975e-01 2.65952805996445e-03 
1.26384559260524e+00 4.50603964998584e-01 2.68353571077754e-03 
1.27055034375964e+00 4.49557957633238e-01 2.70747063443907e-03 
1.27725509491405e+00 4.48496271747401e-01 2.73132780911645e-03 
1.28395984606845e+00 4.47418826297525e-01 2.75510217249304e-03 
1.29066459722285e+00 4.46325542815353e-01 2.77878862284076e-03 
1.29736934837726e+00 4.45216345471238e-01 2.80227216712953e-03 
1.30407409953166e+00 4.44091337531627e-01 2.82463715252675e-03 
1.31077885068607e+00 4.42951924612641e-01 2.84600025518924e-03 
1.31748360184047e+00 4.41798060241332e-01 2.86725770120631e-03 
1.32418835299488e+00 4.40629700359165e-01 2.88840510819891e-03 
1.33089310414928e+00 4.39446803367040e-01 2.90943807228299e-03 
1.33759785530369e+00 4.38249330170120e-01 2.93035216913935e-03 
1.34430260645809e+00 4.37037244222411e-01 2.95114295511169e-03 
1.35100735761249e+00 4.35810511571104e-01 2.97180596833356e-03 
1.35771210876690e+00 4.34569100900621e-01 2.99233672988468e-03 
1.36441685992130e+00 4.33312983576360e-01 3.01273074497610e-03 
1.37112161107571e+00 4.32042133688105e-01 3.03298350416488e-03 
1.37782636223011e+00 4.30756528093075e-01 3.05309048459625e-03 
1.38453111338452e+00 4.29456146458578e-01 3.07304715127506e-03 
1.39123586453892e+00 4.28140971304255e-01 3.09284895836545e-03 
1.39794061569333e+00 4.26810988043880e-01 3.11249135051899e-03 
1.40464536684773e+00 4.25466185026676e-01 3.13196976423171e-03 
1.41135011800213e+00 4.24106553578147e-01 3.15127962922663e-03 
1.41805486915654e+00 4.22732088040361e-01 3.17041636986627e-03 
1.42475962031094e+00 4.21342785811684e-01 3.18937540659115e-03 
1.43146437146535e+00 4.19938647385922e-01 3.20815215738522e-03 
1.43816912261975e+00 4.18519676390843e-01 3.22674203926900e-03 
1.44487387377416e+00 4.17085879626048e-01 3.24514046981769e-03 
1.45157862492856e+00 4.15637267100166e-01 3.26334286870591e-03 
1.45828337608297e+00 4.14173852067334e-01 3.28134465927830e-03 
1.46498812723737e+00 4.12695651062944e-01 3.29914127014367e-03 
1.47169287839177e+00 4.11202683938609e-01 3.31672813679566e-03 
1.47839762954618e+00 4.09694973896332e-01 3.33410070325696e-03 
1.48510238070058e+00 4.08172547521842e-01 3.35125442374580e-03 
1.49180713185499e+00 4.06635434817063e-01 3.36818476436711e-03 
1.49851188300939e+00 4.05083669231691e-01 3.38430309166709e-03 
1.50521663416380e+00 4.03518379853282e-01 3.39809940867281e-03 
1.51192138531820e+00 4.01942458683872e-01 3.41017720853139e-03 
1.51862613647261e+00 4.00355964790269e-01 3.42204929315125e-03 
1.52533088762701e+00 3.98758959364994e-01 3.43371304821265e-03 
1.53203563878141e+00 3.97151505731543e-01 3.44516588166040e-03 
1.53874038993582e+00 3.95533669349069e-01 3.45640522460750e-03 
1.54544514109022e+00 3.93905517816467e-01 3.46742853224283e-03 
1.55214989224463e+00 3.92267120875857e-01 3.47823328473959e-03 
1.55885464339903e+00 3.90618550415461e-01 3.48881698816719e-03 
1.56555939455344e+00 3.88959880471852e-01 3.49917717540627e-03 
1.57226414570784e+00 3.87291187231578e-01 3.50931140706349e-03 
1.57896889686225e+00 3.85612549032145e-01 3.51921727238801e-03 
1.58567364801665e+00 3.83924046362359e-01 3.52889239019098e-03 
1.59237839917105e+00 3.82225761861999e-01 3.53833440976234e-03 
1.59908315032546e+00 3.80517780320845e-01 3.54754101178910e-03 
1.60578790147986e+00 3.78800188677016e-01 3.55650990927376e-03 
1.61249265263427e+00 3.77073076014643e-01 3.56523884845154e-03 
1.61919740378867e+00 3.75336533560845e-01 3.57372560970624e-03 
1.62590215494308e+00 3.73590654682017e-01 3.58196800848437e-03 
1.63260690609748e+00 3.71835534879409e-01 3.58996389620752e-03 
1.63931165725188e+00 3.70071271784006e-01 3.59771116118153e-03 
1.64601640840629e+00 3.68297965150685e-01 3.60520772950356e-03 
1.65272115956069e+00 3.66515716851651e-01 3.61245156596502e-03 
1.65942591071510e+00 3.64724630869149e-01 3.61944067495082e-03 
1.66613066186950e+00 3.62924813287442e-01 3.62617310133436e-03 
1.67283541302391e+00 3.61116372284042e-01 3.63264693136715e-03 
1.67954016417831e+00 3.59299418120206e-01 3.63886029356352e-03 
1.68624491533272e+00 3.57474063130677e-01 3.64481135957954e-03 
1.69294966648712e+00 3.55640421712672e-01 3.65049834508541e-03 
1.69965441764152e+00 3.53798610314109e-01 3.65591951063063e-03 
1.70635916879593e+00 3.51948747421074e-01 3.66107316250213e-03 
1.71306391995033e+00 3.50090953544520e-01 3.66595765357594e-03 
1.71976867110474e+00 3.48225351206195e-01 3.67057138415829e-03 
1.72647342225914e+00 3.46352064923796e-01 3.67491280281908e-03 
1.73317817341355e+00 3.44471221195352e-01 3.67898040721652e-03 
1.73988292456795e+00 3.42582948482817e-01 3.68277274491030e-03 
1.74658767572236e+00 3.40687377194899e-01 3.68628841416603e-03 
1.75329242687676e+00 3.38784639669092e-01 3.68952606474848e-03 
1.75999717803116e+00 3.36874870152929e-01 3.69248439870276e-03 
1.76670192918557e+00 3.34958204784458e-01 3.69516217112456e-03 
1.77340668033997e+00 3.33034781571917e-01 3.69755819091667e-03 
1.78011143149438e+00 3.31104740372644e-01 3.69967132153454e-03 
1.78681618264878e+00 3.29168222871182e-01 3.70150048171684e-03 
1.79352093380319e+00 3.27225372556617e-01 3.70304464620213e-03 
1.80022568495759e+00 3.25276334699117e-01 3.70430284643273e-03 
1.80693043611200e+00 3.23321256325704e-01 3.70527417124170e-03 
1.81363518726640e+00 3.21360286195235e-01 3.70595776752528e-03 
1.82033993842080e+00 3.19393574772611e-01 3.70635284089951e-03 
1.82704468957521e+00 3.17421274202212e-01 3.70645865633960e-03 
1.83374944072961e+00 3.15443538280554e-01 3.70627453880353e-03 
1.84045419188402e+00 3.13460522428186e-01 3.70579987383768e-03 
1.84715894303842e+00 3.11472383660819e-01 3.70503410816349e-03 
1.85386369419283e+00 3.09479280559695e-01 3.70397675024732e-03 
1.86056844534723e+00 3.07481373241203e-01 3.70262737085064e-03 
1.86727319650164e+00 3.05478823325748e-01 3.70098560356062e-03 
1.87397794765604e+00 3.03471793905871e-01 3.69905114530143e-03 
1.88068269881044e+00 3.01460449513638e-01 3.69682375682416e-03 
1.88738744996485e+00 2.99444956087298e-01 3.69430326317727e-03 
1.89409220111925e+00 2.97425480937217e-01 3.69148955415515e-03 
1.90079695227366e+00 2.95402192711093e-01 3.68982025362108e-03 
1.90750170342806e+00 2.93372001963486e-01 3.69014085739622e-03 
1.91420645458247e+00 2.91333100700742e-01 3.69096037346897e-03 
1.92091120573687e+00 2.89285706658595e-01 3.69137847439198e-03 
1.92761595689128e+00 2.87230041046190e-01 3.69139374790899e-03 
1.93432070804568e+00 2.85166328493314e-01 3.69100490019825e-03 
1.94102545920008e+00 2.83094796995423e-01 3.69021075746125e-03 
1.94773021035449e+00 2.81015677856472e-01 3.68901026746202e-03 
1.95443496150889e+00 2.78929205629550e-01 3.68740250101594e-03 
1.96113971266330e+00 2.76835618055341e-01 3.68538665342423e-03 
1.96784446381770e+00 2.74735155998409e-01 3.68296204585384e-03 
1.97454921497211e+00 2.72628063381336e-01 3.68012812666136e-03 
1.98125396612651e+00 2.70514587116703e-01 3.67688447265803e-03 
1.98795871728092e+00 2.68394977036969e-01 3.67323079031435e-03 
1.99466346843532e+00 2.66269485822226e-01 3.66916691690332e-03 
2.00136821958972e+00 2.64138368925878e-01 3.66469282158029e-03 
2.00807297074413e+00 2.62001884498262e-01 3.65980860639796e-03 
2.01477772189853e+00 2.59860293308222e-01 3.65451450725422e-03 
2.02148247305294e+00 2.57713858662683e-01 3.64881089477236e-03 
2.02818722420734e+00 2.55562846324240e-01 3.64269827511163e-03 
2.03489197536175e+00 2.53407524426790e-01 3.63617729070628e-03 
2.04159672651615e+00 2.51248163389255e-01 3.62924872093243e-03 
2.04830147767056e+00 2.49085035827414e-01 3.62191348270081e-03 
2.05500622882496e+00 2.46918416463888e-01 3.61417263097432e-03 
2.06171097997936e+00 2.44748582036316e-01 3.60602735920932e-03 
2.06841573113377e+00 2.42575811203766e-01 3.59747899971859e-03 
2.07512048228817e+00 2.40400384451407e-01 3.58852902395569e-03 
2.08182523344258e+00 2.38222583993508e-01 3.57917904271904e-03 
