Energy(eV)           EEDF(eV^-(3/2))      Anisotropy(eV^-(3/2))
1.26347509768782e-03 3.19318530456294e+00 1.69647577312205e-03 
3.79042529306346e-03 3.18073407601046e+00 2.36839871170506e-03 
6.31737548843910e-03 3.16184783246363e+00 3.44096179748727e-03 
8.84432568381474e-03 3.14090825619431e+00 4.17463308609638e-03 
1.13712758791904e-02 3.11991620711282e+00 4.75412812676614e-03 
1.38982260745660e-02 3.09855081346351e+00 5.22101835060947e-03 
1.64251762699417e-02 3.07791468811168e+00 5.62521151714830e-03 
1.89521264653173e-02 3.05714795184636e+00 6.00422170115318e-03 
2.14790766606929e-02 3.03678477943912e+00 6.32900186761534e-03 
2.40060268560686e-02 3.01661358397996e+00 6.61049374260694e-03 
2.65329770514442e-02 2.99700369219047e+00 6.80910541736368e-03 
2.90599272468199e-02 2.97827018323093e+00 6.93804692451006e-03 
3.15868774421955e-02 2.96054829190077e+00 7.08682567443031e-03 
3.41138276375711e-02 2.94315513021217e+00 7.26171625964443e-03 
3.66407778329468e-02 2.92625141131057e+00 7.38742930645664e-03 
3.91677280283224e-02 2.90997842758088e+00 7.47376618370952e-03 
4.16946782236981e-02 2.89437818149560e+00 7.56916089396301e-03 
4.42216284190737e-02 2.87915750917901e+00 7.67248798483279e-03 
4.67485786144493e-02 2.86440233957862e+00 7.74154569944978e-03 
4.92755288098250e-02 2.85018907187855e+00 7.77896336916453e-03 
5.18024790052006e-02 2.83656871399068e+00 7.79372251700569e-03 
5.43294292005763e-02 2.82353970068409e+00 7.78517617442270e-03 
5.68563793959519e-02 2.81115269643195e+00 7.74559087647001e-03 
5.93833295913275e-02 2.79945092414749e+00 7.67506619561982e-03 
6.19102797867032e-02 2.78847035167747e+00 7.57360615137804e-03 
6.44372299820788e-02 2.77823983452338e+00 7.44112415968505e-03 
6.69641801774545e-02 2.76878121534309e+00 7.27744921097788e-03 
6.94911303728301e-02 2.76010938121241e+00 7.10787008688947e-03 
7.20180805682057e-02 2.75210695038015e+00 6.99926029839192e-03 
7.45450307635814e-02 2.74449130509682e+00 6.93445612010802e-03 
7.70719809589570e-02 2.73727700774515e+00 6.85081946539694e-03 
7.95989311543327e-02 2.73047599526629e+00 6.74834028945917e-03 
8.21258813497083e-02 2.72409760659630e+00 6.62698131918896e-03 
8.46528315450839e-02 2.71814860215057e+00 6.48667980695516e-03 
8.71797817404596e-02 2.71263317552655e+00 6.32734961801174e-03 
8.97067319358352e-02 2.70755295767219e+00 6.14888368878969e-03 
9.22336821312109e-02 2.70290701384839e+00 5.95115690542283e-03 
9.47606323265865e-02 2.69869183380022e+00 5.73402947021211e-03 
9.72875825219622e-02 2.69490131564368e+00 5.49735085318909e-03 
9.98145327173378e-02 2.69152674407317e+00 5.27866311052227e-03 
1.02341482912713e-01 2.68846178417444e+00 5.13696244028020e-03 
1.04868433108089e-01 2.68557621831027e+00 5.03940397438703e-03 
1.07395383303465e-01 2.68287109127660e+00 4.93156418613643e-03 
1.09922333498840e-01 2.68034670418505e+00 4.81341995893126e-03 
1.12449283694216e-01 2.67800261451407e+00 4.68494417805068e-03 
1.14976233889592e-01 2.67583763537693e+00 4.54610632369543e-03 
1.17503184084967e-01 2.67384983405197e+00 4.39687315177483e-03 
1.20030134280343e-01 2.67203652982829e+00 4.26226074999409e-03 
1.22557084475719e-01 2.67035229993033e+00 4.17013960429611e-03 
1.25084034671094e-01 2.66875653346315e+00 4.09705026706833e-03 
1.27610984866470e-01 2.66724948841742e+00 4.01775701821518e-03 
1.30137935061845e-01 2.66583115328328e+00 3.93225298823991e-03 
1.32664885257221e-01 2.66450124710347e+00 3.84053015213935e-03 
1.35191835452597e-01 2.66325921939121e+00 3.74257947821059e-03 
1.37718785647972e-01 2.66210424991926e+00 3.63839109677342e-03 
1.40245735843348e-01 2.66103524838765e+00 3.52795449237977e-03 
1.42772686038724e-01 2.66005085397840e+00 3.41125872458546e-03 
1.45299636234099e-01 2.65914943480688e+00 3.28829268458261e-03 
1.47826586429475e-01 2.65832908728014e+00 3.15904539832216e-03 
1.50353536624851e-01 2.65758763537372e+00 3.04569856983215e-03 
1.52880486820226e-01 2.65690142108166e+00 2.96391527265783e-03 
1.55407437015602e-01 2.65625774932294e+00 2.89158282332756e-03 
1.57934387210978e-01 2.65565616807238e+00 2.81536772959121e-03 
1.60461337406353e-01 2.65509612089609e+00 2.73526676662190e-03 
1.62988287601729e-01 2.65457694685666e+00 2.65127664410564e-03 
1.65515237797104e-01 2.65409788039987e+00 2.56339408867485e-03 
1.68042187992480e-01 2.65365805122444e+00 2.47161594181244e-03 
1.70569138187856e-01 2.65325648413687e+00 2.39720021722571e-03 
1.73096088383231e-01 2.65287807426951e+00 2.35072221455871e-03 
1.75623038578607e-01 2.65251732089825e+00 2.31060845707869e-03 
1.78149988773983e-01 2.65217415857366e+00 2.26837844641227e-03 
1.80676938969358e-01 2.65184849083273e+00 2.22403161770837e-03 
1.83203889164734e-01 2.65154019019622e+00 2.17756735471103e-03 
1.85730839360110e-01 2.65124909816328e+00 2.12898500078962e-03 
1.88257789555485e-01 2.65097502520345e+00 2.07828387144882e-03 
1.90784739750861e-01 2.65071775074603e+00 2.02546326858081e-03 
1.93311689946236e-01 2.65047702316722e+00 1.97052249702815e-03 
1.95838640141612e-01 2.65025255977497e+00 1.91346088385495e-03 
1.98365590336988e-01 2.65004404679184e+00 1.85427780116615e-03 
2.00892540532363e-01 2.64985113933601e+00 1.82404378218792e-03 
2.03419490727739e-01 2.64966037972166e+00 1.83050215302266e-03 
2.05946440923115e-01 2.64946952863401e+00 1.84210906110408e-03 
2.08473391118490e-01 2.64927862863754e+00 1.85344464532118e-03 
2.11000341313866e-01 2.64908772178387e+00 1.86450899511382e-03 
2.13527291509242e-01 2.64889684961199e+00 1.87530219993017e-03 
2.16054241704617e-01 2.64870605314849e+00 1.88582434920069e-03 
2.18581191899993e-01 2.64851537290775e+00 1.89607553227343e-03 
2.21108142095369e-01 2.64832484889222e+00 1.90605583834489e-03 
2.23635092290744e-01 2.64813452059260e+00 1.91576535646195e-03 
2.26162042486120e-01 2.64794442698816e+00 1.92520417546768e-03 
2.28688992681495e-01 2.64775460654688e+00 1.93437238391117e-03 
2.31215942876871e-01 2.64756509722579e+00 1.94327007004950e-03 
2.33742893072247e-01 2.64737593647117e+00 1.95189732180868e-03 
2.36269843267622e-01 2.64718716121882e+00 1.96025422671063e-03 
2.38796793462998e-01 2.64699880789432e+00 1.96834087184849e-03 
2.41323743658374e-01 2.64681091241325e+00 1.97615734385632e-03 
2.43850693853749e-01 2.64662351018153e+00 1.98370372886808e-03 
2.46377644049125e-01 2.64643663609559e+00 1.99098011247516e-03 
2.48904594244501e-01 2.64625032454270e+00 2.00071839195015e-03 
2.51431544439876e-01 2.64606359305162e+00 2.05247439629390e-03 
2.53958494635252e-01 2.64586181961282e+00 2.14277377032015e-03 
2.56485444830627e-01 2.64564429692034e+00 2.23442223131229e-03 
2.59012395026003e-01 2.64541030509692e+00 2.32741594279289e-03 
2.61539345221379e-01 2.64515911176217e+00 2.42175087234798e-03 
2.64066295416754e-01 2.64488997210462e+00 2.51742278374150e-03 
2.66593245612130e-01 2.64460212895786e+00 2.61442722922892e-03 
2.69120195807506e-01 2.64429481288090e+00 2.71275954204338e-03 
2.71647146002881e-01 2.64396724224280e+00 2.81241482888186e-03 
2.74174096198257e-01 2.64361862331185e+00 2.91338796251185e-03 
2.76701046393633e-01 2.64324815034926e+00 3.01567357442646e-03 
2.79227996589008e-01 2.64285500570765e+00 3.11926604752421e-03 
2.81754946784384e-01 2.64243835993443e+00 3.22415950883261e-03 
2.84281896979760e-01 2.64199737188010e+00 3.33034782223104e-03 
2.86808847175135e-01 2.64153118881179e+00 3.43782458118237e-03 
2.89335797370511e-01 2.64103894653206e+00 3.54658310148773e-03 
2.91862747565886e-01 2.64051976950311e+00 3.65661641403633e-03 
2.94389697761262e-01 2.63997277097654e+00 3.76791725757209e-03 
2.96916647956638e-01 2.63939705312888e+00 3.88047807145261e-03 
2.99443598152013e-01 2.63879170720286e+00 3.99808855971956e-03 
3.01970548347389e-01 2.63815348000277e+00 4.13048096470855e-03 
3.04497498542765e-01 2.63747509745673e+00 4.27368981781783e-03 
3.07024448738140e-01 2.63675508654899e+00 4.41851457717319e-03 
3.09551398933516e-01 2.63599195615100e+00 4.56494036503815e-03 
3.12078349128892e-01 2.63518419737795e+00 4.71295166261709e-03 
3.14605299324267e-01 2.63433028396142e+00 4.86253229480072e-03 
3.17132249519643e-01 2.63342867263853e+00 5.01366541503850e-03 
3.19659199715018e-01 2.63247780355798e+00 5.16633349039572e-03 
3.22186149910394e-01 2.63147610070317e+00 5.32051828678871e-03 
3.24713100105770e-01 2.63042197233295e+00 5.47620085437497e-03 
3.27240050301145e-01 2.62931381144024e+00 5.63336151315584e-03 
3.29767000496521e-01 2.62814999622877e+00 5.79197983876316e-03 
3.32293950691897e-01 2.62692889060844e+00 5.95203464846662e-03 
3.34820900887272e-01 2.62564884470941e+00 6.11350398743125e-03 
3.37347851082648e-01 2.62430819541542e+00 6.27636511521957e-03 
3.39874801278024e-01 2.62290526691641e+00 6.44059449255890e-03 
3.42401751473399e-01 2.62143837128096e+00 6.60616776839100e-03 
3.44928701668775e-01 2.61990580904857e+00 6.77305976724856e-03 
3.47455651864151e-01 2.61830586984222e+00 6.94124447694953e-03 
3.49982602059526e-01 2.61663683300133e+00 7.11564573690444e-03 
3.52509552254902e-01 2.61489224310259e+00 7.30119445483351e-03 
3.55036502450277e-01 2.61306515178008e+00 7.49298658274816e-03 
3.57563452645653e-01 2.61115333942797e+00 7.68613912131172e-03 
3.60090402841029e-01 2.60915457600409e+00 7.88061315217762e-03 
3.62617353036404e-01 2.60706662210612e+00 8.07636850461794e-03 
3.65144303231780e-01 2.60488723008206e+00 8.27336374199910e-03 
3.67671253427156e-01 2.60261414517503e+00 8.47155614911007e-03 
3.70198203622531e-01 2.60024510670271e+00 8.67090172040464e-03 
3.72725153817907e-01 2.59777784927133e+00 8.87135514919135e-03 
3.75252104013283e-01 2.59521010402437e+00 9.07286981781929e-03 
3.77779054208658e-01 2.59253959992605e+00 9.27539778890230e-03 
3.80306004404034e-01 2.58976406507932e+00 9.47888979762514e-03 
3.82832954599409e-01 2.58688122807857e+00 9.68329524518149e-03 
3.85359904794785e-01 2.58388881939671e+00 9.88856219338269e-03 
3.87886854990161e-01 2.58078457280645e+00 1.00946373604858e-02 
3.90413805185536e-01 2.57756622683560e+00 1.03014661182851e-02 
3.92940755380912e-01 2.57423152625607e+00 1.05089924905108e-02 
3.95467705576288e-01 2.57077822360609e+00 1.07171591525885e-02 
3.97994655771663e-01 2.56720408074543e+00 1.09259074327957e-02 
4.00521605967039e-01 2.56350687044287e+00 1.11322162284167e-02 
4.03048556162415e-01 2.55968840484979e+00 1.13348791830091e-02 
4.05575506357790e-01 2.55574832345375e+00 1.15367256569257e-02 
4.08102456553166e-01 2.55168463420733e+00 1.17388873089481e-02 
4.10629406748542e-01 2.54749536122981e+00 1.19413042990565e-02 
4.13156356943917e-01 2.54317854632460e+00 1.21439156271841e-02 
4.15683307139293e-01 2.53873225052016e+00 1.23466591436551e-02 
4.18210257334668e-01 2.53415455563372e+00 1.25494715610886e-02 
4.20737207530044e-01 2.52944356585667e+00 1.27522884677802e-02 
4.23264157725420e-01 2.52459740936105e+00 1.29550443425948e-02 
4.25791107920795e-01 2.51961423992587e+00 1.31576725713869e-02 
4.28318058116171e-01 2.51449223858237e+00 1.33601054649981e-02 
4.30845008311547e-01 2.50922961527715e+00 1.35622742788471e-02 
4.33371958506922e-01 2.50382461055186e+00 1.37641092341128e-02 
4.35898908702298e-01 2.49827549723843e+00 1.39655395405705e-02 
4.38425858897674e-01 2.49258058216844e+00 1.41664934210873e-02 
4.40952809093049e-01 2.48673820789524e+00 1.43668981377788e-02 
4.43479759288425e-01 2.48074675442763e+00 1.45666800198622e-02 
4.46006709483801e-01 2.47460464097332e+00 1.47657644932206e-02 
4.48533659679176e-01 2.46831032769101e+00 1.49640761116743e-02 
4.51060609874552e-01 2.46186231744918e+00 1.51615385899874e-02 
4.53587560069927e-01 2.45525915759012e+00 1.53580748386126e-02 
4.56114510265303e-01 2.44849944169754e+00 1.55536070001668e-02 
4.58641460460679e-01 2.44158181136578e+00 1.57480564876599e-02 
4.61168410656054e-01 2.43450495796905e+00 1.59413440244660e-02 
4.63695360851430e-01 2.42726762442868e+00 1.61333896860306e-02 
4.66222311046806e-01 2.41986860697647e+00 1.63241129433267e-02 
4.68749261242181e-01 2.41230675691219e+00 1.65134327080245e-02 
4.71276211437557e-01 2.40458098235316e+00 1.67012673793863e-02 
4.73803161632933e-01 2.39669024997384e+00 1.68875348928652e-02 
4.76330111828308e-01 2.38863358673333e+00 1.70721527703857e-02 
4.78857062023684e-01 2.38041008158851e+00 1.72550381722908e-02 
4.81384012219059e-01 2.37201888719069e+00 1.74361079509297e-02 
4.83910962414435e-01 2.36345922156347e+00 1.76152787058644e-02 
4.86437912609811e-01 2.35473036975946e+00 1.77924668406546e-02 
4.88964862805186e-01 2.34583168549365e+00 1.79675886211926e-02 
4.91491813000562e-01 2.33676259275086e+00 1.81405602355563e-02 
4.94018763195938e-01 2.32752258736508e+00 1.83112978553277e-02 
4.96545713391313e-01 2.31811123856814e+00 1.84797176983443e-02 
4.99072663586689e-01 2.30852819050522e+00 1.86454532183879e-02 
5.01599613782065e-01 2.29877377677524e+00 1.88065913089557e-02 
5.04126563977440e-01 2.28885182800405e+00 1.89633898745763e-02 
5.06653514172816e-01 2.27876226879108e+00 1.91175996051312e-02 
5.09180464368192e-01 2.26850510041761e+00 1.92691417771943e-02 
5.11707414563567e-01 2.25808040205064e+00 1.94179381092434e-02 
5.14234364758943e-01 2.24748833190183e+00 1.95639108279073e-02 
5.16761314954318e-01 2.23672912833913e+00 1.97069827350619e-02 
5.19288265149694e-01 2.22580311094897e+00 1.98470772757037e-02 
5.21815215345070e-01 2.21471068154665e+00 1.99841186065358e-02 
5.24342165540445e-01 2.20345232513277e+00 2.01180316651842e-02 
5.26869115735821e-01 2.19202861079351e+00 2.02487422399639e-02 
5.29396065931197e-01 2.18044019254256e+00 2.03761770401230e-02 
5.31923016126572e-01 2.16868781010252e+00 2.05002637664707e-02 
5.34449966321948e-01 2.15677228962375e+00 2.06209311823134e-02 
5.36976916517323e-01 2.14469454433852e+00 2.07381091846008e-02 
5.39503866712699e-01 2.13245557514850e+00 2.08517288751959e-02 
5.42030816908075e-01 2.12005647114356e+00 2.09617226321738e-02 
5.44557767103450e-01 2.10749841004998e+00 2.10680241810498e-02 
5.47084717298826e-01 2.09478265860628e+00 2.11705686658480e-02 
5.49611667494202e-01 2.08191057286475e+00 2.12692927199000e-02 
5.52138617689577e-01 2.06888359841701e+00 2.13641345362737e-02 
5.54665567884953e-01 2.05570327054203e+00 2.14550339377411e-02 
5.57192518080329e-01 2.04237121427484e+00 2.15419324461629e-02 
5.59719468275704e-01 2.02888914439467e+00 2.16247733511914e-02 
5.62246418471080e-01 2.01525886533085e+00 2.17035017781892e-02 
5.64773368666456e-01 2.00148227098548e+00 2.17780647552485e-02 
5.67300318861831e-01 1.98756134447125e+00 2.18484112792033e-02 
5.69827269057207e-01 1.97349815776370e+00 2.19144923805291e-02 
5.72354219252582e-01 1.95929487126659e+00 2.19762611870179e-02 
5.74881169447958e-01 1.94495373328964e+00 2.20336729861152e-02 
5.77408119643334e-01 1.93047707943781e+00 2.20866852858145e-02 
5.79935069838709e-01 1.91586733191136e+00 2.21352578739997e-02 
5.82462020034085e-01 1.90112699871630e+00 2.21793528761214e-02 
5.84988970229461e-01 1.88625867278465e+00 2.22189348111096e-02 
5.87515920424836e-01 1.87126503100423e+00 2.22539706454027e-02 
5.90042870620212e-01 1.85614883315787e+00 2.22844298449938e-02 
5.92569820815588e-01 1.84091292077188e+00 2.23102844253954e-02 
5.95096771010963e-01 1.82556021587401e+00 2.23315089994093e-02 
5.97623721206339e-01 1.81009371966100e+00 2.23480808226112e-02 
6.00150671401715e-01 1.79451651107615e+00 2.23599798364485e-02 
6.02677621597090e-01 1.77883174529742e+00 2.23671887088507e-02 
6.05204571792466e-01 1.76304265213669e+00 2.23696928722660e-02 
6.07731521987841e-01 1.74715253435096e+00 2.23674805590359e-02 
6.10258472183217e-01 1.73116476586654e+00 2.23605428340136e-02 
6.12785422378593e-01 1.71508278991711e+00 2.23488736243499e-02 
6.15312372573968e-01 1.69891011709716e+00 2.23324697463653e-02 
6.17839322769344e-01 1.68265032333194e+00 2.23113309294307e-02 
6.20366272964720e-01 1.66630704776559e+00 2.22854598367866e-02 
6.22893223160095e-01 1.64988399056909e+00 2.22548620832385e-02 
6.25420173355471e-01 1.63338491066992e+00 2.22195462496586e-02 
6.27947123550847e-01 1.61681362340523e+00 2.21795238942396e-02 
6.30474073746222e-01 1.60017399810080e+00 2.21348095604513e-02 
6.33001023941598e-01 1.58346995557800e+00 2.20854207816474e-02 
6.35527974136973e-01 1.56670546559103e+00 2.20313780822828e-02 
6.38054924332349e-01 1.54988454419718e+00 2.19727049757029e-02 
6.40581874527725e-01 1.53301125106252e+00 2.19094279584805e-02 
6.43108824723100e-01 1.51608968670603e+00 2.18415765012658e-02 
6.45635774918476e-01 1.49912398968494e+00 2.17691830361353e-02 
6.48162725113852e-01 1.48211833372443e+00 2.16922829404272e-02 
6.50689675309227e-01 1.46507692479475e+00 2.16109145170567e-02 
6.53216625504603e-01 1.44800399813911e+00 2.15251189713048e-02 
6.55743575699979e-01 1.43090381525568e+00 2.14349403840895e-02 
6.58270525895354e-01 1.41378066083723e+00 2.13404256817357e-02 
6.60797476090730e-01 1.39663883967193e+00 2.12416246022567e-02 
6.63324426286106e-01 1.37948267350907e+00 2.11385896581697e-02 
6.65851376481481e-01 1.36231649789343e+00 2.10313760958821e-02 
6.68378326676857e-01 1.34514465897211e+00 2.09200418516881e-02 
6.70905276872232e-01 1.32797151027780e+00 2.08046475044087e-02 
6.73432227067608e-01 1.31080140949249e+00 2.06852562247384e-02 
6.75959177262984e-01 1.29363871519557e+00 2.05619337213465e-02 
6.78486127458359e-01 1.27648778360057e+00 2.04347481837989e-02 
6.81013077653735e-01 1.25935296528454e+00 2.03037702223711e-02 
6.83540027849111e-01 1.24223860191436e+00 2.01690728048255e-02 
6.86066978044486e-01 1.22514902297419e+00 2.00307311902380e-02 
6.88593928239862e-01 1.20808854249823e+00 1.98888228599555e-02 
6.91120878435238e-01 1.19106145581309e+00 1.97434274457812e-02 
6.93647828630613e-01 1.17407203629411e+00 1.95946266554859e-02 
6.96174778825989e-01 1.15712453213967e+00 1.94425041957485e-02 
6.98701729021365e-01 1.14022316316801e+00 1.92871456926347e-02 
7.01228679216740e-01 1.12337211764060e+00 1.91283289133489e-02 
7.03755629412116e-01 1.10657690438700e+00 1.89661600255166e-02 
7.06282579607491e-01 1.08984160817207e+00 1.88010651570451e-02 
7.08809529802867e-01 1.07317025300799e+00 1.86331407250959e-02 
7.11336479998243e-01 1.05656681860659e+00 1.84624799868596e-02 
7.13863430193618e-01 1.04003523746829e+00 1.82891775510333e-02 
7.16390380388994e-01 1.02357939202192e+00 1.81133292860739e-02 
7.18917330584370e-01 1.00720311181959e+00 1.79350322270898e-02 
7.21444280779745e-01 9.90910170789864e-01 1.77543844815105e-02 
7.23971230975121e-01 9.74704284553080e-01 1.75714851336750e-02 
7.26498181170497e-01 9.58589107802187e-01 1.73864341484873e-02 
7.29025131365872e-01 9.42568231752468e-01 1.71993322742841e-02 
7.31552081561248e-01 9.26645181663426e-01 1.70102809450665e-02 
7.34079031756623e-01 9.10823414435966e-01 1.68193821822401e-02 
7.36605981951999e-01 8.95106316287891e-01 1.66267384960172e-02 
7.39132932147375e-01 8.79497200510608e-01 1.64324527866310e-02 
7.41659882342750e-01 8.63999305309786e-01 1.62366282455131e-02 
7.44186832538126e-01 8.48615791732587e-01 1.60393682565840e-02 
7.46713782733502e-01 8.33349741683944e-01 1.58407762978085e-02 
7.49240732928877e-01 8.18204156034184e-01 1.56409558431617e-02 
7.51767683124253e-01 8.03181952820184e-01 1.54400102651595e-02 
7.54294633319629e-01 7.88285965542049e-01 1.52380427380947e-02 
7.56821583515004e-01 7.73518941557160e-01 1.50351561421255e-02 
7.59348533710380e-01 7.58883540573272e-01 1.48314529683595e-02 
7.61875483905756e-01 7.44382333242171e-01 1.46270352250737e-02 
7.64402434101131e-01 7.30017799855223e-01 1.44220043452054e-02 
7.66929384296507e-01 7.15792329141996e-01 1.42164610952515e-02 
7.69456334491882e-01 7.01708217172926e-01 1.40105054857046e-02 
7.71983284687258e-01 6.87767666366870e-01 1.38042366831551e-02 
7.74510234882634e-01 6.73972784604157e-01 1.35977529241818e-02 
7.77037185078009e-01 6.60325584445622e-01 1.33911514311504e-02 
7.79564135273385e-01 6.46827982457904e-01 1.31845283300359e-02 
7.82091085468761e-01 6.33481798645107e-01 1.29779785703778e-02 
7.84618035664136e-01 6.20288755986772e-01 1.27715958474762e-02 
