Energy(eV)           EEDF(eV^-(3/2))      Anisotropy(eV^-(3/2))
4.23834416507916e-02 5.08154197014556e-02 1.11601747997882e-03 
1.27150324952375e-01 5.07825330009970e-02 5.13749289613673e-03 
2.11917208253958e-01 5.07749535227798e-02 5.22196660989255e-03 
2.96684091555541e-01 5.07699404732333e-02 5.32946418953987e-03 
3.81450974857124e-01 5.07605965877478e-02 5.41856116962535e-03 
4.66217858158707e-01 5.07453844255346e-02 5.51038596457796e-03 
5.50984741460290e-01 5.07242057353676e-02 5.60357003143568e-03 
6.35751624761873e-01 5.06969937420874e-02 5.69609411391308e-03 
7.20518508063457e-01 5.06635520808987e-02 5.78686192490783e-03 
8.05285391365040e-01 5.06237398532168e-02 5.87524259440131e-03 
8.90052274666623e-01 5.05774037829561e-02 5.96090991233778e-03 
9.74819157968206e-01 5.05243866879275e-02 6.04378919737587e-03 
1.05958604126979e+00 5.04647797720373e-02 6.12362656822450e-03 
1.14435292457137e+00 5.03994077149271e-02 6.20062003346014e-03 
1.22911980787296e+00 5.03281772025059e-02 6.27470281390910e-03 
1.31388669117454e+00 5.02503766653070e-02 6.34603863296907e-03 
1.39865357447612e+00 5.01662780073190e-02 6.41527524218639e-03 
1.48342045777770e+00 5.00760410149480e-02 6.48258155754483e-03 
1.56818734107929e+00 4.99800408985877e-02 6.54822642097941e-03 
1.65295422438087e+00 4.98792663359858e-02 6.61246989855885e-03 
1.73772110768245e+00 4.97736680549573e-02 6.67471044352431e-03 
1.82248799098404e+00 4.96632081588945e-02 6.73452875667341e-03 
1.90725487428562e+00 4.95478586785318e-02 6.79181756876025e-03 
1.99202175758720e+00 4.94264350854626e-02 6.84618225406933e-03 
2.07678864088879e+00 4.92980779431903e-02 6.89721953112506e-03 
2.16155552419037e+00 4.91632166986010e-02 6.94466426689464e-03 
2.24632240749195e+00 4.90233530465710e-02 6.98857564527464e-03 
2.33108929079354e+00 4.88772141477799e-02 7.02840828026414e-03 
2.41585617409512e+00 4.87248219551826e-02 7.06405974541488e-03 
2.50062305739670e+00 4.85662137147892e-02 7.09506794917603e-03 
2.58538994069829e+00 4.84007526511836e-02 7.12087945239968e-03 
2.67015682399987e+00 4.82278346076528e-02 7.14145520720796e-03 
2.75492370730145e+00 4.80475424365431e-02 7.15711722759199e-03 
2.83969059060303e+00 4.78599650459866e-02 7.16820475860132e-03 
2.92445747390462e+00 4.76658700474711e-02 7.17509468438969e-03 
3.00922435720620e+00 4.74653762873916e-02 7.17810954465940e-03 
3.09399124050778e+00 4.72590065887574e-02 7.17753046004337e-03 
3.17875812380937e+00 4.70471342208183e-02 7.17354957604380e-03 
3.26352500711095e+00 4.68298633014077e-02 7.16627350616687e-03 
3.34829189041253e+00 4.66073036814577e-02 7.15574876453011e-03 
3.43305877371412e+00 4.63795719368048e-02 7.14201214638630e-03 
3.51782565701570e+00 4.61467907122004e-02 7.12503037181736e-03 
3.60259254031728e+00 4.59090937741825e-02 7.10476316800936e-03 
3.68735942361887e+00 4.56668047264581e-02 7.08134629616721e-03 
3.77212630692045e+00 4.54202229208143e-02 7.05502892966219e-03 
3.85689319022203e+00 4.51694831783102e-02 7.02605356785709e-03 
3.94166007352361e+00 4.49147181126950e-02 6.99463121746399e-03 
4.02642695682520e+00 4.46560586886234e-02 6.96094185568657e-03 
4.11119384012678e+00 4.43931407526546e-02 6.92518557969333e-03 
4.19596072342836e+00 4.41259835680876e-02 6.88747562901655e-03 
4.28072760672995e+00 4.38547223192676e-02 6.84789510733380e-03 
4.36549449003153e+00 4.35794937694886e-02 6.80653434318863e-03 
4.45026137333311e+00 4.33004349169252e-02 6.76350977580626e-03 
4.53502825663470e+00 4.30176815798111e-02 6.71895307759643e-03 
4.61979513993628e+00 4.27320830066164e-02 6.67291425440313e-03 
4.70456202323786e+00 4.24438310002867e-02 6.62555666021704e-03 
4.78932890653945e+00 4.21530454218359e-02 6.57702370980330e-03 
4.87409578984103e+00 4.18598429260045e-02 6.52743278333858e-03 
4.95886267314261e+00 4.15643377295220e-02 6.47687556251527e-03 
5.04362955644420e+00 4.12666314409890e-02 6.42541157649690e-03 
5.12839643974578e+00 4.09660990942326e-02 6.37319479889234e-03 
5.21316332304736e+00 4.06628607646395e-02 6.32028093705006e-03 
5.29793020634895e+00 4.03570336995589e-02 6.26675921900669e-03 
5.38269708965053e+00 4.00487326517018e-02 6.21271557286275e-03 
5.46746397295211e+00 3.97380692919268e-02 6.15824009589808e-03 
5.55223085625369e+00 3.94251518132434e-02 6.10341152778786e-03 
5.63699773955528e+00 3.91100859071703e-02 6.04829516243335e-03 
5.72176462285686e+00 3.87929746786295e-02 5.99296237740572e-03 
5.80653150615844e+00 3.84739176588666e-02 5.93748413070105e-03 
5.89129838946003e+00 3.81530113716884e-02 5.88191911380938e-03 
5.97606527276161e+00 3.78303496460440e-02 5.82631847999128e-03 
6.06083215606319e+00 3.75059498516374e-02 5.77073514007600e-03 
6.14559903936478e+00 3.71796390156845e-02 5.71524214287818e-03 
6.23036592266636e+00 3.68515082759440e-02 5.65987522424433e-03 
6.31513280596794e+00 3.65216457085871e-02 5.60468030920407e-03 
6.39989968926953e+00 3.61901363770171e-02 5.54970256783101e-03 
6.48466657257111e+00 3.58570620521153e-02 5.49498791540777e-03 
6.56943345587269e+00 3.55225010853990e-02 5.44058007377039e-03 
6.65420033917427e+00 3.51865284849437e-02 5.38651839938775e-03 
6.73896722247586e+00 3.48492160791957e-02 5.33283742698307e-03 
6.82373410577744e+00 3.45106326888928e-02 5.27956633136484e-03 
6.90850098907902e+00 3.41708444021713e-02 5.22672979366275e-03 
6.99326787238061e+00 3.38299146805187e-02 5.17433786249720e-03 
7.07803475568219e+00 3.34871449867325e-02 5.12245398851590e-03 
7.16280163898377e+00 3.31415729380389e-02 5.07112956125955e-03 
7.24756852228536e+00 3.27932898172184e-02 5.02031886305887e-03 
7.33233540558694e+00 3.24423839419585e-02 4.97003688078024e-03 
7.41710228888852e+00 3.20889407028598e-02 4.92029744761987e-03 
7.50186917219011e+00 3.17330425448746e-02 4.87111344721048e-03 
7.58663605549169e+00 3.13747689895118e-02 4.82249629387678e-03 
7.67140293879327e+00 3.10141967053750e-02 4.77445543296459e-03 
7.75616982209486e+00 3.06513996240563e-02 4.72699825355720e-03 
7.84093670539644e+00 3.02864490482123e-02 4.68013022494672e-03 
7.92570358869802e+00 2.99194137712812e-02 4.63385507299203e-03 
8.01047047199961e+00 2.95503601810408e-02 4.58817934593659e-03 
8.09523735530119e+00 2.91801019853364e-02 4.54306062864897e-03 
8.18000423860277e+00 2.88091345689048e-02 4.49851502573436e-03 
8.26477112190435e+00 2.84374944493914e-02 4.45456759118445e-03 
8.34953800520594e+00 2.80652164828991e-02 4.41121747967053e-03 
8.43430488850752e+00 2.76923338813817e-02 4.36846358311785e-03 
8.51907177180910e+00 2.73188782465438e-02 4.32630422813071e-03 
8.60383865511069e+00 2.69448796420396e-02 4.28473698351157e-03 
8.68860553841227e+00 2.65703666664377e-02 4.24375870939977e-03 
8.77337242171385e+00 2.61953665240308e-02 4.20336564617655e-03 
8.85813930501544e+00 2.58199050887446e-02 4.16355348272689e-03 
8.94290618831702e+00 2.54440069685909e-02 4.12431740957836e-03 
9.02767307161860e+00 2.50676955651907e-02 4.08565224855093e-03 
9.11243995492019e+00 2.46909931191270e-02 4.04755251130459e-03 
9.19720683822177e+00 2.43139207621126e-02 4.01001235375210e-03 
9.28197372152335e+00 2.39364985739051e-02 3.97302562888789e-03 
9.36674060482494e+00 2.35587456278568e-02 3.93658601987512e-03 
9.45150748812652e+00 2.31806800251925e-02 3.90068707496244e-03 
9.53627437142810e+00 2.28023189354234e-02 3.86532216742655e-03 
9.62104125472968e+00 2.24236786397704e-02 3.83048448778262e-03 
9.70580813803127e+00 2.20447745748028e-02 3.79616706010111e-03 
9.79057502133285e+00 2.16656213743628e-02 3.76236279419743e-03 
9.87534190463443e+00 2.12862329042848e-02 3.72906451570546e-03 
9.96010878793602e+00 2.09066222992997e-02 3.69626430147536e-03 
1.00448756712376e+01 2.05269224783795e-02 3.66392810259085e-03 
1.01296425545392e+01 2.01510856793454e-02 3.63189007021519e-03 
1.02144094378408e+01 1.97790522050479e-02 3.60033674604324e-03 
1.02991763211423e+01 1.94107633689821e-02 3.56926040540388e-03 
1.03839432044439e+01 1.90461614852647e-02 3.53865339383400e-03 
1.04687100877455e+01 1.86851898552086e-02 3.50850812879051e-03 
1.05534769710471e+01 1.83277927570545e-02 3.47881708265194e-03 
1.06382438543487e+01 1.79739154361265e-02 3.44957276790363e-03 
1.07230107376503e+01 1.76235040976702e-02 3.42076772808171e-03 
1.08077776209518e+01 1.72765058989149e-02 3.39239456154787e-03 
1.08925445042534e+01 1.69328689371177e-02 3.36444592646405e-03 
1.09773113875550e+01 1.65925422406962e-02 3.33691454220136e-03 
1.10620782708566e+01 1.62554757570748e-02 3.30979322642689e-03 
1.11468451541582e+01 1.59216203363900e-02 3.28307488465907e-03 
1.12316120374598e+01 1.55909277215953e-02 3.25675248039904e-03 
1.13163789207613e+01 1.52633505383336e-02 3.23081906908159e-03 
1.14011458040629e+01 1.49388422782747e-02 3.20526783675715e-03 
1.14859126873645e+01 1.46173572813268e-02 3.18009208880668e-03 
1.15706795706661e+01 1.42988507214371e-02 3.15517810228604e-03 
1.16554464539677e+01 1.39832686480860e-02 3.13020848131013e-03 
1.17402133372693e+01 1.36705990841147e-02 3.10486727091212e-03 
1.18249802205708e+01 1.33608785331582e-02 3.07901066806269e-03 
1.19097471038724e+01 1.30541443382217e-02 3.05255138703362e-03 
1.19945139871740e+01 1.27504438379951e-02 3.02542507811863e-03 
1.20792808704756e+01 1.24498513934908e-02 2.99764529384662e-03 
1.21640477537772e+01 1.21524392617030e-02 2.96926413140682e-03 
1.22488146370788e+01 1.18582575763693e-02 2.94033328542531e-03 
1.23335815203803e+01 1.15673512570011e-02 2.91090237656565e-03 
1.24183484036819e+01 1.12797601604585e-02 2.88101975345976e-03 
1.25031152869835e+01 1.09955192319147e-02 2.85073249544871e-03 
1.25878821702851e+01 1.07146586542819e-02 2.82008642177417e-03 
1.26726490535867e+01 1.04372039957539e-02 2.78912610130483e-03 
1.27574159368883e+01 1.01631763557182e-02 2.75789486768065e-03 
1.28421828201898e+01 9.89259250773027e-03 2.72643483833286e-03 
1.29269497034914e+01 9.62546504011575e-03 2.69477628028461e-03 
1.30117165867930e+01 9.36180064505656e-03 2.66285445275551e-03 
1.30964834700946e+01 9.10159281277612e-03 2.63047304970916e-03 
1.31812503533962e+01 8.84486555104716e-03 2.59745440727403e-03 
1.32660172366978e+01 8.59167123861477e-03 2.56375313594949e-03 
1.33507841199993e+01 8.34206630585496e-03 2.52939726013960e-03 
1.34355510033009e+01 8.09610096672091e-03 2.49443217802981e-03 
1.35203178866025e+01 7.85382540814480e-03 2.45891207129793e-03 
1.36050847699041e+01 7.61528003282791e-03 2.42289387682430e-03 
1.36898516532057e+01 7.38050387121538e-03 2.38644340029111e-03 
1.37746185365073e+01 7.14952858214819e-03 2.34963490676703e-03 
1.38593854198088e+01 6.92237857995323e-03 2.31249736720121e-03 
1.39441523031104e+01 6.69906084158227e-03 2.27495365497472e-03 
1.40289191864120e+01 6.47958521420676e-03 2.23687644044219e-03 
1.41136860697136e+01 6.26398697744266e-03 2.19819864434336e-03 
1.41984529530152e+01 6.05230986657398e-03 2.15892052103141e-03 
1.42832198363168e+01 5.84459703112205e-03 2.11906011343384e-03 
1.43679867196183e+01 5.64088803030206e-03 2.07864905116422e-03 
1.44527536029199e+01 5.44122627608436e-03 2.03775318226625e-03 
1.45375204862215e+01 5.24564936128042e-03 1.99643956809298e-03 
1.46222873695231e+01 5.05417849318457e-03 1.95475704532749e-03 
1.47070542528247e+01 4.86684179871616e-03 1.91276871395958e-03 
1.47918211361263e+01 4.68365746282164e-03 1.87055160502193e-03 
1.48765880194278e+01 4.50463760941583e-03 1.82818309735627e-03 
1.49613549027294e+01 4.32978861949852e-03 1.78575046001429e-03 
1.50461217860310e+01 4.15915853672409e-03 1.74339472959137e-03 
1.51308886693326e+01 3.99378154715468e-03 1.70108790537430e-03 
1.52156555526342e+01 3.83358363241853e-03 1.65899562527558e-03 
1.53004224359358e+01 3.67848470799542e-03 1.61718326354224e-03 
1.53851893192373e+01 3.52839928080543e-03 1.57571123349158e-03 
1.54699562025389e+01 3.38323707139152e-03 1.53463518584119e-03 
1.55547230858405e+01 3.24290360138975e-03 1.49400620787797e-03 
1.56394899691421e+01 3.10730074703219e-03 1.45387102267801e-03 
1.57242568524437e+01 2.97632725952882e-03 1.41427176711779e-03 
1.58090237357453e+01 2.84987388426521e-03 1.37482536362184e-03 
1.58937906190468e+01 2.72784891317312e-03 1.33559317833000e-03 
1.59785575023484e+01 2.61014362581554e-03 1.29666230593314e-03 
1.60633243856500e+01 2.49671859642615e-03 1.25809558667175e-03 
1.61480912689516e+01 2.38746353614977e-03 1.21998755050412e-03 
1.62328581522532e+01 2.28231994681783e-03 1.18238510351149e-03 
1.63176250355548e+01 2.18116212664167e-03 1.14534455015630e-03 
1.64023919188563e+01 2.08392373475866e-03 1.10888685961720e-03 
1.64871588021579e+01 1.99047758657427e-03 1.07304448002547e-03 
1.65719256854595e+01 1.90074518152213e-03 1.03778437518664e-03 
1.66566925687611e+01 1.81459217598776e-03 1.00308772145814e-03 
1.67414594520627e+01 1.73195612498055e-03 9.68957320875005e-04 
1.68262263353643e+01 1.65272075926340e-03 9.35430504675102e-04 
1.69109932186658e+01 1.57681950197448e-03 9.02524353288245e-04 
1.69957601019674e+01 1.50413546695524e-03 8.70245772303956e-04 
1.70805269852690e+01 1.43442742981922e-03 8.38604025070796e-04 
1.71652938685706e+01 1.36739141602853e-03 8.07632636273740e-04 
1.72500607518722e+01 1.30298754955394e-03 7.77312862720397e-04 
1.73348276351737e+01 1.24113038628655e-03 7.47671666544065e-04 
1.74195945184753e+01 1.18177629389475e-03 7.18717148826361e-04 
1.75043614017769e+01 1.12483915766003e-03 6.90470868217782e-04 
1.75891282850785e+01 1.07027251156630e-03 6.62934066669186e-04 
1.76738951683801e+01 1.01799070886170e-03 6.36123115737371e-04 
1.77586620516817e+01 9.67945319293007e-04 6.10033727861513e-04 
1.78434289349832e+01 9.20052069197601e-04 5.84677451301453e-04 
1.79281958182848e+01 8.74261358609354e-04 5.60045525487128e-04 
1.80129627015864e+01 8.30491006405749e-04 5.36163290617099e-04 
1.80977295848880e+01 7.88702133715180e-04 5.13053615760812e-04 
1.81824964681896e+01 7.48814966027824e-04 4.90744962409089e-04 
1.82672633514912e+01 7.10771310244775e-04 4.69222161971308e-04 
1.83520302347927e+01 6.74487257830032e-04 4.48475968490773e-04 
1.84367971180943e+01 6.39907007607500e-04 4.28480901656962e-04 
1.85215640013959e+01 6.06951587157082e-04 4.09226448505580e-04 
1.86063308846975e+01 5.75567737977937e-04 3.90686910216354e-04 
1.86910977679991e+01 5.45681395265091e-04 3.72850759444380e-04 
1.87758646513007e+01 5.17241950666932e-04 3.55692379662532e-04 
1.88606315346022e+01 4.90180169752154e-04 3.39199463978462e-04 
1.89453984179038e+01 4.64448162537378e-04 3.23346720792879e-04 
1.90301653012054e+01 4.39981409360368e-04 3.08132303336301e-04 
1.91149321845070e+01 4.16742073733025e-04 2.93547886686985e-04 
1.91996990678086e+01 3.94667844187349e-04 2.79589951930336e-04 
1.92844659511102e+01 3.73712622469376e-04 2.66231651718508e-04 
1.93692328344117e+01 3.53817569807212e-04 2.53455432472851e-04 
1.94539997177133e+01 3.34940106439526e-04 2.41234253958719e-04 
1.95387666010149e+01 3.17026326396441e-04 2.29551329646389e-04 
1.96235334843165e+01 3.00036973549953e-04 2.18381265225632e-04 
1.97083003676181e+01 2.83922739281460e-04 2.07708058223574e-04 
1.97930672509197e+01 2.68647498441580e-04 1.97507918252643e-04 
1.98778341342212e+01 2.54166217066963e-04 1.87765634699765e-04 
1.99626010175228e+01 2.40445711931733e-04 1.78459184864551e-04 
2.00473679008244e+01 2.27444430020108e-04 1.69578112932904e-04 
2.01321347841260e+01 2.15124535229316e-04 1.61112175514594e-04 
2.02169016674276e+01 2.03448091404988e-04 1.53049278563846e-04 
2.03016685507292e+01 1.92386776047310e-04 1.45368516103509e-04 
2.03864354340307e+01 1.81906206701690e-04 1.38055713180647e-04 
2.04712023173323e+01 1.71980588130858e-04 1.31091675830747e-04 
2.05559692006339e+01 1.62578783748184e-04 1.24463277157885e-04 
2.06407360839355e+01 1.53677323041060e-04 1.18152912513387e-04 
2.07255029672371e+01 1.45248031158066e-04 1.12148441603775e-04 
2.08102698505387e+01 1.37269573326594e-04 1.06433732877835e-04 
2.08950367338402e+01 1.29716474565649e-04 1.00997572610263e-04 
2.09798036171418e+01 1.22569359864549e-04 9.58253917486525e-05 
2.10645705004434e+01 1.15805359266837e-04 9.09076162944909e-05 
2.11493373837450e+01 1.09407223976919e-04 8.62315044913861e-05 
2.12341042670466e+01 1.03353957697315e-04 8.17878076111757e-05 
2.13188711503482e+01 9.76294330521884e-05 7.75639257185706e-05 
2.14036380336497e+01 9.22147357596997e-05 7.35508603466860e-05 
2.14884049169513e+01 8.70952849503997e-05 6.97371365145730e-05 
2.15731718002529e+01 8.22540525063610e-05 6.61145099848311e-05 
2.16579386835545e+01 7.76778655928640e-05 6.26725373001949e-05 
2.17427055668561e+01 7.33514036380769e-05 5.94036714444331e-05 
2.18274724501577e+01 6.92627747190939e-05 5.62984137929722e-05 
2.19122393334592e+01 6.53982030786677e-05 5.33498609388969e-05 
2.19970062167608e+01 6.17469611508500e-05 5.05500240733467e-05 
2.20817731000624e+01 5.82971612517647e-05 4.78940537401604e-05 
2.21665399833640e+01 5.50394730912989e-05 4.53753145182555e-05 
2.22513068666656e+01 5.19623997335200e-05 4.29883151753754e-05 
2.23360737499672e+01 4.90568858892243e-05 4.07254464227057e-05 
2.24208406332687e+01 4.63126642791684e-05 3.85810699733204e-05 
2.25056075165703e+01 4.37216233032546e-05 3.65483422614767e-05 
2.25903743998719e+01 4.12745955832893e-05 3.46221690500035e-05 
2.26751412831735e+01 3.89643169966599e-05 3.27963964881753e-05 
2.27599081664751e+01 3.67826038003075e-05 3.10664234461162e-05 
2.28446750497767e+01 3.47229526807572e-05 2.94267171890741e-05 
2.29294419330782e+01 3.27780593770764e-05 2.78731232888158e-05 
2.30142088163798e+01 3.09421033519175e-05 2.64006978288112e-05 
2.30989756996814e+01 2.92085900333139e-05 2.50057371344391e-05 
2.31837425829830e+01 2.75723138406190e-05 2.36838058731646e-05 
2.32685094662846e+01 2.60274476929529e-05 2.24315191337930e-05 
2.33532763495861e+01 2.45693226349929e-05 2.12448454828771e-05 
2.34380432328877e+01 2.31927421573376e-05 2.01207196615989e-05 
2.35228101161893e+01 2.18935322362686e-05 1.90555209293845e-05 
2.36075769994909e+01 2.06670594818773e-05 1.80464862109595e-05 
2.36923438827925e+01 1.95095932696043e-05 1.70903639674427e-05 
2.37771107660941e+01 1.84170030166210e-05 1.61846640044303e-05 
2.38618776493956e+01 1.73859552392787e-05 1.53264666241066e-05 
2.39466445326972e+01 1.64127682442417e-05 1.45135279765183e-05 
2.40314114159988e+01 1.54944641775375e-05 1.37432988027630e-05 
2.41161782993004e+01 1.46278210901014e-05 1.30138444769980e-05 
2.42009451826020e+01 1.38101671030858e-05 1.23228688570335e-05 
2.42857120659036e+01 1.30385580703590e-05 1.16685343749943e-05 
2.43704789492051e+01 1.23106006039579e-05 1.10487003676225e-05 
2.44552458325067e+01 1.16236746929648e-05 1.04617050139413e-05 
2.45400127158083e+01 1.09756460872741e-05 9.90562990740484e-06 
2.46247795991099e+01 1.03641835145197e-05 9.37898097644634e-06 
2.47095464824115e+01 9.78738421162206e-06 8.88003891104757e-06 
2.47943133657131e+01 9.24317410851443e-06 8.40746044048578e-06 
2.48790802490146e+01 8.72985721607254e-06 7.95970457190813e-06 
2.49638471323162e+01 8.24558857434495e-06 7.53554974884960e-06 
2.50486140156178e+01 7.78878851964241e-06 7.13348465558439e-06 
2.51333808989194e+01 7.35700719810194e-06 6.75281967749441e-06 
2.52181477822210e+01 6.94898730748758e-06 6.39215846114347e-06 
2.53029146655226e+01 6.56334882148401e-06 6.05055350172633e-06 
2.53876815488241e+01 6.19896400060587e-06 5.72692577363951e-06 
2.54724484321257e+01 5.85459789312392e-06 5.42042076847325e-06 
2.55572153154273e+01 5.52923922269719e-06 5.13006832588328e-06 
2.56419821987289e+01 5.22178307708282e-06 4.85509799394453e-06 
2.57267490820305e+01 4.93132284173821e-06 4.59463764324285e-06 
2.58115159653321e+01 4.65687014557845e-06 4.34799277176433e-06 
2.58962828486336e+01 4.39761240768391e-06 4.11437950509958e-06 
2.59810497319352e+01 4.15266568227894e-06 3.89318334805803e-06 
2.60658166152368e+01 3.92131149819114e-06 3.68373864740849e-06 
2.61505834985384e+01 3.70278029149884e-06 3.48551656709478e-06 
2.62353503818400e+01 3.49640930400016e-06 3.29789854718250e-06 
2.63201172651416e+01 3.30148282897053e-06 3.12036424338955e-06 
