Energy(eV)           EEDF(eV^-(3/2))      Anisotropy(eV^-(3/2))
2.14065181154703e-02 5.58020084733597e-02 9.40826162884928e-04 
6.42195543464109e-02 5.57708462051015e-02 2.27157383614732e-03 
1.07032590577351e-01 5.57571789653158e-02 2.29697082297864e-03 
1.49845626808292e-01 5.57513548939342e-02 2.33836875836108e-03 
1.92658663039233e-01 5.57486509364210e-02 2.38622889002589e-03 
2.35471699270173e-01 5.57468826265119e-02 2.43633630781044e-03 
2.78284735501114e-01 5.57450907274537e-02 2.48602855078529e-03 
3.21097771732054e-01 5.57423448670059e-02 2.53025456316348e-03 
3.63910807962995e-01 5.57383090901836e-02 2.57365307368858e-03 
4.06723844193936e-01 5.57327721009576e-02 2.61638145476372e-03 
4.49536880424876e-01 5.57257024812359e-02 2.65869532021009e-03 
4.92349916655817e-01 5.57170822540193e-02 2.70045684547779e-03 
5.35162952886757e-01 5.57068812684929e-02 2.74154621784574e-03 
5.77975989117698e-01 5.56950860231824e-02 2.78195849602767e-03 
6.20789025348639e-01 5.56816571402862e-02 2.82165893202182e-03 
6.63602061579579e-01 5.56665563009519e-02 2.86064839795106e-03 
7.06415097810520e-01 5.56497464132267e-02 2.89890065645360e-03 
7.49228134041460e-01 5.56312011364630e-02 2.93640228827515e-03 
7.92041170272401e-01 5.56108913906923e-02 2.97313747531402e-03 
8.34854206503342e-01 5.55887843686942e-02 3.00909246958698e-03 
8.77667242734282e-01 5.55648485533425e-02 3.04425907956660e-03 
9.20480278965223e-01 5.55390537157431e-02 3.07863106019712e-03 
9.63293315196163e-01 5.55113709136692e-02 3.11220356979465e-03 
1.00610635142710e+00 5.54817724903531e-02 3.14491715049589e-03 
1.04891938765804e+00 5.54504343983837e-02 3.17684966249686e-03 
1.09173242388899e+00 5.54174492450098e-02 3.20800004948039e-03 
1.13454546011993e+00 5.53827993164005e-02 3.23833861113340e-03 
1.17735849635087e+00 5.53464679277437e-02 3.26786444060033e-03 
1.22017153258181e+00 5.53084394294437e-02 3.29669522329887e-03 
1.26298456881275e+00 5.52685051251629e-02 3.32504134057973e-03 
1.30579760504369e+00 5.52266353110903e-02 3.35319917975076e-03 
1.34861064127463e+00 5.51829318668957e-02 3.38123384997322e-03 
1.39142367750557e+00 5.51374464319441e-02 3.40905190269279e-03 
1.43423671373651e+00 5.50901593533381e-02 3.43655907253153e-03 
1.47704974996745e+00 5.50410524220231e-02 3.46368347176632e-03 
1.51986278619839e+00 5.49901088448757e-02 3.49030294340225e-03 
1.56267582242933e+00 5.49377170266279e-02 3.51646634359795e-03 
1.60548885866027e+00 5.48838841420172e-02 3.54208587952590e-03 
1.64830189489121e+00 5.48286035101089e-02 3.56712022851051e-03 
1.69111493112215e+00 5.47718695418191e-02 3.59153521803247e-03 
1.73392796735309e+00 5.47136777001882e-02 3.61530152151477e-03 
1.77674100358403e+00 5.46540244636154e-02 3.63839406363992e-03 
1.81955403981498e+00 5.45929072914247e-02 3.66079151241462e-03 
1.86236707604592e+00 5.45303245915882e-02 3.68247584290835e-03 
1.90518011227686e+00 5.44662756901326e-02 3.70346840051265e-03 
1.94799314850780e+00 5.44004160174926e-02 3.72372229182914e-03 
1.99080618473874e+00 5.43325313749593e-02 3.74321544601315e-03 
2.03361922096968e+00 5.42626179896936e-02 3.76195109626949e-03 
2.07643225720062e+00 5.41906732386107e-02 3.77992300730977e-03 
2.11924529343156e+00 5.41166956267603e-02 3.79708073985157e-03 
2.16205832966250e+00 5.40412250913005e-02 3.81348089558118e-03 
2.20487136589344e+00 5.39642957713217e-02 3.82912623069193e-03 
2.24768440212438e+00 5.38856791309425e-02 3.84410456739490e-03 
2.29049743835532e+00 5.38052278362625e-02 3.85859431106922e-03 
2.33331047458626e+00 5.37229386872024e-02 3.87266696336094e-03 
2.37612351081720e+00 5.36388097051209e-02 3.88629021919560e-03 
2.41893654704814e+00 5.35528401012046e-02 3.89943549974029e-03 
2.46174958327908e+00 5.34650302448921e-02 3.91207762527110e-03 
2.50456261951002e+00 5.33753816322695e-02 3.92421008161485e-03 
2.54737565574097e+00 5.32836591158734e-02 3.93580757092860e-03 
2.59018869197191e+00 5.31897103078937e-02 3.94684460240871e-03 
2.63300172820285e+00 5.30935377489080e-02 3.95730705214450e-03 
2.67581476443379e+00 5.29951451543744e-02 3.96718282963299e-03 
2.71862780066473e+00 5.28945373880385e-02 3.97646183932948e-03 
2.76144083689567e+00 5.27917204346012e-02 3.98513581460081e-03 
2.80425387312661e+00 5.26867013718566e-02 3.99319171377804e-03 
2.84706690935755e+00 5.25796078449525e-02 4.00062480650127e-03 
2.88987994558849e+00 5.24705295001377e-02 4.00743589270628e-03 
2.93269298181943e+00 5.23594771759835e-02 4.01362394842759e-03 
2.97550601805037e+00 5.22464625962428e-02 4.01918781255748e-03 
3.01831905428131e+00 5.21314983405336e-02 4.02411850715330e-03 
3.06113209051225e+00 5.20147842314248e-02 4.02842019854540e-03 
3.10394512674319e+00 5.18963493671519e-02 4.03209962769141e-03 
3.14675816297413e+00 5.17762090524166e-02 4.03515983766685e-03 
3.18957119920507e+00 5.16543792418135e-02 4.03760423564059e-03 
3.23238423543601e+00 5.15308765129409e-02 4.03950302535825e-03 
3.27519727166696e+00 5.14057139705392e-02 4.04101860491090e-03 
3.31801030789790e+00 5.12788993699182e-02 4.04226670137722e-03 
3.36082334412884e+00 5.11504394234737e-02 4.04325589119510e-03 
3.40363638035978e+00 5.10203419775138e-02 4.04396143316057e-03 
3.44644941659072e+00 5.08886159652260e-02 4.04436121144468e-03 
3.48926245282166e+00 5.07552713604563e-02 4.04443555349133e-03 
3.53207548905260e+00 5.06203191323007e-02 4.04416705986358e-03 
3.57488852528354e+00 5.04837712005791e-02 4.04354063316370e-03 
3.61770156151448e+00 5.03456403794102e-02 4.04253961608595e-03 
3.66051459774542e+00 5.02060325146001e-02 4.04115237285286e-03 
3.70332763397636e+00 5.00649707356192e-02 4.03937364948758e-03 
3.74614067020730e+00 4.99224701676331e-02 4.03719614933196e-03 
3.78895370643824e+00 4.97785466262739e-02 4.03461362658722e-03 
3.83176674266918e+00 4.96332165780204e-02 4.03162117004719e-03 
3.87457977890012e+00 4.94864971017911e-02 4.02821510158908e-03 
3.91739281513106e+00 4.93384058517715e-02 4.02439288081040e-03 
3.96020585136200e+00 4.91889610214538e-02 4.02015301543113e-03 
4.00301888759295e+00 4.90381813089076e-02 4.01549900359777e-03 
4.04583192382389e+00 4.88859829269866e-02 4.01043581084447e-03 
4.08864496005483e+00 4.87323083315788e-02 4.00496038763814e-03 
4.13145799628577e+00 4.85771780377363e-02 3.99907042065459e-03 
4.17427103251671e+00 4.84206129937535e-02 3.99276848661768e-03 
4.21708406874765e+00 4.82626345519664e-02 3.98605777776984e-03 
4.25989710497859e+00 4.81032644403262e-02 3.97894204728971e-03 
4.30271014120953e+00 4.79425247350159e-02 3.97142555030966e-03 
4.34552317744047e+00 4.77804378344731e-02 3.96351298745460e-03 
4.38833621367141e+00 4.76170264345441e-02 3.95520929645117e-03 
4.43114924990235e+00 4.74523135179321e-02 3.94654060092102e-03 
4.47396228613329e+00 4.72863205729267e-02 3.93756360652859e-03 
4.51677532236423e+00 4.71190666990356e-02 3.92831371028291e-03 
4.55958835859517e+00 4.69507804430128e-02 3.91879252753792e-03 
4.60240139482611e+00 4.67815052542333e-02 3.90900974690378e-03 
4.64521443105705e+00 4.66112594391645e-02 3.89896497530869e-03 
4.68802746728799e+00 4.64400616564391e-02 3.88865724187740e-03 
4.73084050351894e+00 4.62679308618071e-02 3.87808658568628e-03 
4.77365353974988e+00 4.60948862760728e-02 3.86725397597455e-03 
4.81646657598082e+00 4.59209473335863e-02 3.85616124140270e-03 
4.85927961221176e+00 4.57461336532441e-02 3.84481099663036e-03 
4.90209264844270e+00 4.55704649905931e-02 3.83320657934650e-03 
4.94490568467364e+00 4.53939612117997e-02 3.82135198321688e-03 
4.98771872090458e+00 4.52166422493703e-02 3.80925373335769e-03 
5.03053175713552e+00 4.50384793909944e-02 3.79691570586465e-03 
5.07334479336646e+00 4.48593147032326e-02 3.78432121686699e-03 
5.11615782959740e+00 4.46791720276675e-02 3.77144475096588e-03 
5.15897086582834e+00 4.44980755953562e-02 3.75829207837234e-03 
5.20178390205928e+00 4.43160493979748e-02 3.74487546317257e-03 
5.24459693829022e+00 4.41331171645055e-02 3.73120704152259e-03 
5.28740997452116e+00 4.39493023560932e-02 3.71729880062607e-03 
5.33022301075210e+00 4.37646281453515e-02 3.70316256794773e-03 
5.37303604698304e+00 4.35791174129205e-02 3.68880999296893e-03 
5.41584908321398e+00 4.33927927292799e-02 3.67425253878327e-03 
5.45866211944493e+00 4.32056763529053e-02 3.65950146640155e-03 
5.50147515567587e+00 4.30177902144687e-02 3.64456782846971e-03 
5.54428819190681e+00 4.28291559164893e-02 3.62946245589816e-03 
5.58710122813775e+00 4.26397947197974e-02 3.61419609027202e-03 
5.62991426436869e+00 4.24497275302122e-02 3.59877939859381e-03 
5.67272730059963e+00 4.22589748838187e-02 3.58322284840301e-03 
5.71554033683057e+00 4.20675569472766e-02 3.56753668758455e-03 
5.75835337306151e+00 4.18754935061022e-02 3.55173093931049e-03 
5.80116640929245e+00 4.16828039664432e-02 3.53581539313391e-03 
5.84397944552339e+00 4.14895073452727e-02 3.51979960199267e-03 
5.88679248175433e+00 4.12956222734709e-02 3.50369287501437e-03 
5.92960551798527e+00 4.11011669878059e-02 3.48750427630283e-03 
5.97241855421621e+00 4.09061593351701e-02 3.47124261931027e-03 
6.01523159044715e+00 4.07106167662195e-02 3.45492100801916e-03 
6.05804462667809e+00 4.05144675040293e-02 3.43855388007807e-03 
6.10085766290903e+00 4.03177139413359e-02 3.42214432104171e-03 
6.14367069913997e+00 4.01203730184217e-02 3.40569936331895e-03 
6.18648373537092e+00 3.99224613116274e-02 3.38922600875673e-03 
6.22929677160186e+00 3.97239950375745e-02 3.37273105088196e-03 
6.27210980783280e+00 3.95249900483936e-02 3.35622107565863e-03 
6.31492284406374e+00 3.93254618367901e-02 3.33970245783455e-03 
6.35773588029468e+00 3.91254255326401e-02 3.32318136254171e-03 
6.40054891652562e+00 3.89248959088092e-02 3.30666374303963e-03 
6.44336195275656e+00 3.87238873789618e-02 3.29015534338762e-03 
6.48617498898750e+00 3.85224140040021e-02 3.27366169720267e-03 
6.52898802521844e+00 3.83204894909743e-02 3.25718813108697e-03 
6.57180106144938e+00 3.81181272000207e-02 3.24073976297709e-03 
6.61461409768032e+00 3.79153401444160e-02 3.22432150628005e-03 
6.65742713391126e+00 3.77121409979396e-02 3.20793807336895e-03 
6.70024017014220e+00 3.75085420953829e-02 3.19159398154505e-03 
6.74305320637314e+00 3.73045554400613e-02 3.17529355385787e-03 
6.78586624260408e+00 3.71001927050897e-02 3.15904092371404e-03 
6.82867927883502e+00 3.68954652411685e-02 3.14284003627973e-03 
6.87149231506597e+00 3.66903840785255e-02 3.12669465342792e-03 
6.91430535129691e+00 3.64849599348962e-02 3.11060835562834e-03 
6.95711838752785e+00 3.62792032180370e-02 3.09458454714375e-03 
6.99993142375879e+00 3.60731240338266e-02 3.07864275203126e-03 
7.04274445998973e+00 3.58664549887583e-02 3.06281220683225e-03 
7.08555749622067e+00 3.56589309054863e-02 3.04707776050640e-03 
7.12837053245161e+00 3.54505667810628e-02 3.03141452799787e-03 
7.17118356868255e+00 3.52413772893994e-02 3.01582529359240e-03 
7.21399660491349e+00 3.50313767725376e-02 3.00031274831581e-03 
7.25680964114443e+00 3.48205792484848e-02 2.98487940578643e-03 
7.29962267737537e+00 3.46089984149767e-02 2.96952760963158e-03 
7.34243571360631e+00 3.43966476573678e-02 2.95425953858229e-03 
7.38524874983725e+00 3.41835400527261e-02 2.93907721358843e-03 
7.42806178606819e+00 3.39696883777248e-02 2.92398250276549e-03 
7.47087482229913e+00 3.37551051130020e-02 2.90897712819398e-03 
7.51368785853007e+00 3.35398024510056e-02 2.89406267069927e-03 
7.55650089476101e+00 3.33237923005578e-02 2.87924057632823e-03 
7.59931393099196e+00 3.31070862946119e-02 2.86451216094630e-03 
7.64212696722290e+00 3.28896957949662e-02 2.84987861638487e-03 
7.68494000345384e+00 3.26716318998978e-02 2.83534101484601e-03 
7.72775303968478e+00 3.24529054489760e-02 2.82090031471980e-03 
7.77056607591572e+00 3.22335270305435e-02 2.80655736478724e-03 
7.81337911214666e+00 3.20135069865852e-02 2.79231290970925e-03 
7.85619214837760e+00 3.17928554200312e-02 2.77816759402314e-03 
7.89900518460854e+00 3.15715821996429e-02 2.76412196730685e-03 
7.94181822083948e+00 3.13496969671160e-02 2.75017648796675e-03 
7.98463125707042e+00 3.11272091419503e-02 2.73632783777116e-03 
8.02744429330136e+00 3.09041804038529e-02 2.72255230592488e-03 
8.07025732953230e+00 3.06809372855920e-02 2.70884619618449e-03 
8.11307036576324e+00 3.04574849257659e-02 2.69524199455763e-03 
8.15588340199418e+00 3.02338283016924e-02 2.68173978998658e-03 
8.19869643822512e+00 3.00099722357752e-02 2.66833960412892e-03 
8.24150947445606e+00 2.97859214000809e-02 2.65504139531395e-03 
8.28432251068701e+00 2.95616803223686e-02 2.64184506148630e-03 
8.32713554691795e+00 2.93372533904795e-02 2.62875044388164e-03 
8.36994858314889e+00 2.91126448580358e-02 2.61575732977602e-03 
8.41276161937983e+00 2.88878588486380e-02 2.60286543911903e-03 
8.45557465561077e+00 2.86628993641393e-02 2.59007436211222e-03 
8.49838769184171e+00 2.84377703000215e-02 2.57738360941700e-03 
8.54120072807265e+00 2.82124754455353e-02 2.56479274967606e-03 
8.58401376430359e+00 2.79870184752990e-02 2.55230136485015e-03 
8.62682680053453e+00 2.77614029570465e-02 2.53990897926306e-03 
8.66963983676547e+00 2.75356323557706e-02 2.52761507925930e-03 
8.71245287299641e+00 2.73097100382415e-02 2.51541911797878e-03 
8.75526590922735e+00 2.70836392764801e-02 2.50332051780796e-03 
8.79807894545829e+00 2.68574232519971e-02 2.49131867224040e-03 
8.84089198168923e+00 2.66310650590794e-02 2.47941294811690e-03 
8.88370501792017e+00 2.64045677087633e-02 2.46760268732945e-03 
8.92651805415111e+00 2.61779341319386e-02 2.45588720886349e-03 
8.96933109038205e+00 2.59511671830684e-02 2.44426581035448e-03 
9.01214412661299e+00 2.57242696431166e-02 2.43273776994683e-03 
9.05495716284394e+00 2.54972442230265e-02 2.42130234771206e-03 
9.09777019907488e+00 2.52700935664785e-02 2.40995878733664e-03 
9.14058323530582e+00 2.50428202531387e-02 2.39870631741160e-03 
9.18339627153676e+00 2.48154268012538e-02 2.38754415296166e-03 
9.22620930776770e+00 2.45879156706826e-02 2.37647149661467e-03 
9.26902234399864e+00 2.43602892653335e-02 2.36548753998448e-03 
9.31183538022958e+00 2.41325499359909e-02 2.35459146472709e-03 
9.35464841646052e+00 2.39046999826031e-02 2.34378244378644e-03 
9.39746145269146e+00 2.36767416569150e-02 2.33305964234683e-03 
9.44027448892240e+00 2.34486771646129e-02 2.32242221895434e-03 
9.48308752515334e+00 2.32205086677757e-02 2.31186932637287e-03 
9.52590056138428e+00 2.29922382868826e-02 2.30140011258993e-03 
9.56871359761522e+00 2.27638681030934e-02 2.29101372158362e-03 
9.61152663384616e+00 2.25354001601274e-02 2.28070929422208e-03 
9.65433967007710e+00 2.23068364663829e-02 2.27048596894817e-03 
9.69715270630804e+00 2.20781789966933e-02 2.26034288258166e-03 
9.73996574253898e+00 2.18494296942961e-02 2.25027917092781e-03 
9.78277877876993e+00 2.16205904724741e-02 2.24029396949021e-03 
9.82559181500087e+00 2.13916632163832e-02 2.23038641401021e-03 
9.86840485123181e+00 2.11626497845838e-02 2.22055564109798e-03 
9.91121788746275e+00 2.09335520107384e-02 2.21080078870754e-03 
9.95403092369369e+00 2.07043717050396e-02 2.20112099669376e-03 
9.99684395992463e+00 2.04751106557847e-02 2.19148187189946e-03 
1.00396569961556e+01 2.02462102031111e-02 2.18182987463651e-03 
1.00824700323865e+01 2.00182571497124e-02 2.17219682956450e-03 
1.01252830686174e+01 1.97912440332992e-02 2.16264014382003e-03 
1.01680961048484e+01 1.95651634684423e-02 2.15315902068495e-03 
1.02109091410793e+01 1.93400081461467e-02 2.14375266789770e-03 
1.02537221773103e+01 1.91157708335331e-02 2.13442029791479e-03 
1.02965352135412e+01 1.88924443733563e-02 2.12516112822744e-03 
1.03393482497722e+01 1.86700216836191e-02 2.11597438158333e-03 
1.03821612860031e+01 1.84484957570419e-02 2.10685928625721e-03 
1.04249743222340e+01 1.82278596606190e-02 2.09781507623701e-03 
1.04677873584650e+01 1.80081065350470e-02 2.08884099145301e-03 
1.05106003946959e+01 1.77892295942313e-02 2.07993627793148e-03 
1.05534134309269e+01 1.75712221246806e-02 2.07110018799672e-03 
1.05962264671578e+01 1.73540774849693e-02 2.06233198045049e-03 
1.06390395033887e+01 1.71377891050922e-02 2.05363092068243e-03 
1.06818525396197e+01 1.69223504859016e-02 2.04499628068097e-03 
1.07246655758506e+01 1.67077551984581e-02 2.03642733427132e-03 
1.07674786120816e+01 1.64939968844672e-02 2.02792335296465e-03 
1.08102916483125e+01 1.62810692565028e-02 2.01948361715595e-03 
1.08531046845434e+01 1.60689660960880e-02 2.01110742574547e-03 
1.08959177207744e+01 1.58576812518903e-02 2.00279408975835e-03 
1.09387307570053e+01 1.56472086391403e-02 1.99454292680822e-03 
1.09815437932363e+01 1.54375422389898e-02 1.98635326120597e-03 
1.10243568294672e+01 1.52286760979053e-02 1.97822442402616e-03 
1.10671698656981e+01 1.50206043270104e-02 1.97015575318767e-03 
1.11099829019291e+01 1.48133211014602e-02 1.96214659349797e-03 
1.11527959381600e+01 1.46068206597721e-02 1.95419629670982e-03 
1.11956089743910e+01 1.44010973031865e-02 1.94630422154610e-03 
1.12384220106219e+01 1.41961453949901e-02 1.93846973373554e-03 
1.12812350468528e+01 1.39919593598670e-02 1.93069220602045e-03 
1.13240480830838e+01 1.37885336832183e-02 1.92297101817485e-03 
1.13668611193147e+01 1.35858629105073e-02 1.91530555699785e-03 
1.14096741555457e+01 1.33839416465783e-02 1.90769521631587e-03 
1.14524871917766e+01 1.31827645549996e-02 1.90013939696378e-03 
1.14953002280075e+01 1.29823263573838e-02 1.89257129024519e-03 
1.15381132642385e+01 1.27826229628790e-02 1.88475981329965e-03 
1.15809263004694e+01 1.25836780971877e-02 1.87644827735168e-03 
1.16237393367004e+01 1.23855552175124e-02 1.86755556059219e-03 
1.16665523729313e+01 1.21883154749494e-02 1.85810411454306e-03 
1.17093654091623e+01 1.19920177364822e-02 1.84811613797749e-03 
1.17521784453932e+01 1.17967186080495e-02 1.83761356749673e-03 
1.17949914816241e+01 1.16024724586559e-02 1.82661806867075e-03 
1.18378045178551e+01 1.14093314454426e-02 1.81515102775029e-03 
1.18806175540860e+01 1.12173455396846e-02 1.80323354392497e-03 
1.19234305903170e+01 1.10265625536368e-02 1.79088642213216e-03 
1.19662436265479e+01 1.08370281681946e-02 1.77813016639291e-03 
1.20090566627788e+01 1.06487859612943e-02 1.76497633736319e-03 
1.20518696990098e+01 1.04620543452746e-02 1.75143577514812e-03 
1.20946827352407e+01 1.02769411067959e-02 1.73754087466117e-03 
1.21374957714717e+01 1.00934796084902e-02 1.72331684343882e-03 
1.21803088077026e+01 9.91170112379472e-03 1.70878234038014e-03 
1.22231218439335e+01 9.73163488230587e-03 1.69395566029812e-03 
1.22659348801645e+01 9.55330811520588e-03 1.67885473181737e-03 
1.23087479163954e+01 9.37674610072568e-03 1.66349711571868e-03 
1.23515609526264e+01 9.20197220958413e-03 1.64790000372235e-03 
1.23943739888573e+01 9.02900795036861e-03 1.63208021768692e-03 
1.24371870250882e+01 8.85787301480322e-03 1.61605420921638e-03 
1.24800000613192e+01 8.68858532287145e-03 1.59983805965610e-03 
1.25228130975501e+01 8.52116106774409e-03 1.58344748046804e-03 
1.25656261337811e+01 8.35561476048197e-03 1.56689781396523e-03 
1.26084391700120e+01 8.19195927446882e-03 1.55020403439626e-03 
1.26512522062429e+01 8.03020588954626e-03 1.53338074936138e-03 
1.26940652424739e+01 7.87036433581065e-03 1.51643409111268e-03 
1.27368782787048e+01 7.71244246295886e-03 1.49934840224309e-03 
1.27796913149358e+01 7.55644965793818e-03 1.48210348230493e-03 
1.28225043511667e+01 7.40240014212791e-03 1.46470190340539e-03 
1.28653173873976e+01 7.25030634487498e-03 1.44716017574551e-03 
1.29081304236286e+01 7.10017895658877e-03 1.42949435862758e-03 
1.29509434598595e+01 6.95202698139816e-03 1.41172006292319e-03 
1.29937564960905e+01 6.80585778933343e-03 1.39385245394106e-03 
1.30365695323214e+01 6.66167716798989e-03 1.37590625467770e-03 
1.30793825685524e+01 6.51948937363956e-03 1.35789574942923e-03 
1.31221956047833e+01 6.37929718175305e-03 1.33983478774782e-03 
1.31650086410142e+01 6.24110193690164e-03 1.32173678872278e-03 
1.32078216772452e+01 6.10490360200636e-03 1.30361474556172e-03 
1.32506347134761e+01 5.97070080690962e-03 1.28548123037681e-03 
1.32934477497071e+01 5.83849089625611e-03 1.26734839937309e-03 
