Energy(eV)           EEDF(eV^-(3/2))      Anisotropy(eV^-(3/2))
5.73369989287685e-03 1.96044586474501e-01 5.51785191205344e-06 
1.72010996786306e-02 1.96041089920955e-01 8.72713399365190e-06 
2.86684994643843e-02 1.96037698122142e-01 1.10982574233917e-05 
4.01358992501380e-02 1.96034761580443e-01 1.23479343826235e-05 
5.16032990358917e-02 1.96032199236854e-01 1.29442446232941e-05 
6.30706988216454e-02 1.96030093543367e-01 1.26231647064316e-05 
7.45380986073991e-02 1.96028586993372e-01 1.17894680612601e-05 
8.60054983931528e-02 1.96027431964372e-01 1.08923112628738e-05 
9.74728981789065e-02 1.96026625562518e-01 9.55716871182772e-06 
1.08940297964660e-01 1.96026105048461e-01 8.29017252221319e-06 
1.20407697750414e-01 1.96025729982023e-01 7.40524447788750e-06 
1.31875097536168e-01 1.96025458973706e-01 6.61582079125460e-06 
1.43342497321921e-01 1.96025259179687e-01 5.80957006446846e-06 
1.54809897107675e-01 1.96025126294071e-01 5.00599989455815e-06 
1.66277296893429e-01 1.96025029864099e-01 4.39096068188329e-06 
1.77744696679182e-01 1.96024962276318e-01 3.89280425869254e-06 
1.89212096464936e-01 1.96024908894709e-01 3.52830254826274e-06 
2.00679496250690e-01 1.96024869076685e-01 3.23448556053111e-06 
2.12146896036444e-01 1.96024834847207e-01 3.19644939187811e-06 
2.23614295822197e-01 1.96024800649663e-01 3.27667637311825e-06 
2.35081695607951e-01 1.96024766631615e-01 3.34739859466996e-06 
2.46549095393705e-01 1.96024732932233e-01 3.47354169062848e-06 
2.58016495179458e-01 1.96024697152024e-01 3.95472565983068e-06 
2.69483894965212e-01 1.96024647548816e-01 4.70462910977098e-06 
2.80951294750966e-01 1.96024581269197e-01 5.50401582969214e-06 
2.92418694536719e-01 1.96024495235660e-01 6.35277790992055e-06 
3.03886094322473e-01 1.96024386146606e-01 7.35095838678645e-06 
3.15353494108227e-01 1.96024244071917e-01 8.50346920151824e-06 
3.26820893893981e-01 1.96024062070987e-01 9.73555663788151e-06 
3.38288293679734e-01 1.96023833878530e-01 1.10328629524468e-05 
3.49755693465488e-01 1.96023552837334e-01 1.24372100875042e-05 
3.61223093251242e-01 1.96023207898133e-01 1.39904412358061e-05 
3.72690493036995e-01 1.96022785807257e-01 1.56550093962491e-05 
3.84157892822749e-01 1.96022276651145e-01 1.73950048533269e-05 
3.95625292608503e-01 1.96021669990360e-01 1.92059509609904e-05 
4.07092692394256e-01 1.96020955443964e-01 2.10545085836361e-05 
4.18560092180010e-01 1.96020126386568e-01 2.29471772111762e-05 
4.30027491965764e-01 1.96019171768368e-01 2.49111720376459e-05 
4.41494891751518e-01 1.96018080067894e-01 2.69464759382984e-05 
4.52962291537271e-01 1.96016839292109e-01 2.90530726886828e-05 
4.64429691323025e-01 1.96015436976533e-01 3.12309464630006e-05 
4.75897091108779e-01 1.96013860185369e-01 3.34800814508671e-05 
4.87364490894532e-01 1.96012095511654e-01 3.58004615448518e-05 
4.98831890680286e-01 1.96010129077417e-01 3.81829551263591e-05 
5.10299290466040e-01 1.96007948456242e-01 4.06139851085461e-05 
5.21766690251794e-01 1.96005542159293e-01 4.31020842518264e-05 
5.33234090037547e-01 1.96002895524611e-01 4.56593774169695e-05 
5.44701489823301e-01 1.95999993445841e-01 4.82858449067114e-05 
5.56168889609055e-01 1.95996820372487e-01 5.09814656500926e-05 
5.67636289394808e-01 1.95993360310176e-01 5.37462170794173e-05 
5.79103689180562e-01 1.95989596820956e-01 5.65800750150511e-05 
5.90571088966316e-01 1.95985513023608e-01 5.94830135482563e-05 
6.02038488752070e-01 1.95981091593996e-01 6.24550049266130e-05 
6.13505888537823e-01 1.95976314765436e-01 6.54960194437096e-05 
6.24973288323577e-01 1.95971164329098e-01 6.86060253255125e-05 
6.36440688109331e-01 1.95965621634436e-01 7.17849886180255e-05 
6.47908087895084e-01 1.95959667589652e-01 7.50328730731321e-05 
6.59375487680838e-01 1.95953282662195e-01 7.83496400370582e-05 
6.70842887466592e-01 1.95946446879288e-01 8.17352483323367e-05 
6.82310287252345e-01 1.95939139828502e-01 8.51896541398548e-05 
6.93777687038099e-01 1.95931340658358e-01 8.87128108837194e-05 
7.05245086823853e-01 1.95923028078975e-01 9.22945792758248e-05 
7.16712486609607e-01 1.95914184044653e-01 9.59347427190133e-05 
7.28179886395360e-01 1.95904786849215e-01 9.96424296209092e-05 
7.39647286181114e-01 1.95894814201015e-01 1.03417997219793e-04 
7.51114685966868e-01 1.95884243381311e-01 1.07261384185286e-04 
7.62582085752621e-01 1.95873051245121e-01 1.11172525751417e-04 
7.74049485538375e-01 1.95861214222125e-01 1.15151353588121e-04 
7.85516885324129e-01 1.95848708317616e-01 1.19197795673646e-04 
7.96984285109883e-01 1.95835509113506e-01 1.23311776163459e-04 
8.08451684895636e-01 1.95821591769389e-01 1.27493215256612e-04 
8.19919084681390e-01 1.95806931023652e-01 1.31742029061847e-04 
8.31386484467144e-01 1.95791501194654e-01 1.36058129460122e-04 
8.42853884252897e-01 1.95775276181961e-01 1.40441423967064e-04 
8.54321284038651e-01 1.95758229467642e-01 1.44891815592130e-04 
8.65788683824405e-01 1.95740334117631e-01 1.49409202696806e-04 
8.77256083610158e-01 1.95721562783157e-01 1.53993478849717e-04 
8.88723483395912e-01 1.95701887702238e-01 1.58644532681001e-04 
9.00190883181666e-01 1.95681280701252e-01 1.63362247735264e-04 
9.11658282967420e-01 1.95659713196573e-01 1.68146502321267e-04 
9.23125682753173e-01 1.95637156196286e-01 1.72997169361427e-04 
9.34593082538927e-01 1.95613580301982e-01 1.77914116238679e-04 
9.46060482324681e-01 1.95588955710624e-01 1.82897204641205e-04 
9.57527882110434e-01 1.95563252216502e-01 1.87946290406124e-04 
9.68995281896188e-01 1.95536439213265e-01 1.93061223362091e-04 
9.80462681681942e-01 1.95508485696045e-01 1.98241847169242e-04 
9.91930081467695e-01 1.95479360263666e-01 2.03487999158783e-04 
1.00339748125345e+00 1.95449031120938e-01 2.08564852250425e-04 
1.01486488103920e+00 1.95417603530875e-01 2.13415217635180e-04 
1.02633228082496e+00 1.95385087563474e-01 2.18260625800692e-04 
1.03779968061071e+00 1.95351458709732e-01 2.23158197161378e-04 
1.04926708039646e+00 1.95316692214165e-01 2.28107782789767e-04 
1.06073448018222e+00 1.95280763076560e-01 2.33109228869773e-04 
1.07220187996797e+00 1.95243646053799e-01 2.38162376596821e-04 
1.08366927975373e+00 1.95205315661730e-01 2.43267062075726e-04 
1.09513667953948e+00 1.95165746177106e-01 2.48423116218821e-04 
1.10660407932523e+00 1.95124911639579e-01 2.53630364644127e-04 
1.11807147911099e+00 1.95082785853760e-01 2.58888627571483e-04 
1.12953887889674e+00 1.95039342391338e-01 2.64197719719095e-04 
1.14100627868249e+00 1.94994554593267e-01 2.69557450199821e-04 
1.15247367846825e+00 1.94948395572016e-01 2.74967622416399e-04 
1.16394107825400e+00 1.94900838213887e-01 2.80428033956173e-04 
1.17540847803975e+00 1.94851855181400e-01 2.85938476485824e-04 
1.18687587782551e+00 1.94801418915746e-01 2.91498735645729e-04 
1.19834327761126e+00 1.94749501639312e-01 2.97182948529125e-04 
1.20981067739702e+00 1.94696023078690e-01 3.03126160520242e-04 
1.22127807718277e+00 1.94640856362349e-01 3.09255525247004e-04 
1.23274547696852e+00 1.94583967286707e-01 3.15441071377347e-04 
1.24421287675428e+00 1.94525321369514e-01 3.21682507349542e-04 
1.25568027654003e+00 1.94464883853681e-01 3.27979533033610e-04 
1.26714767632578e+00 1.94402619711232e-01 3.34331839580914e-04 
1.27861507611154e+00 1.94338493647363e-01 3.40739109274014e-04 
1.29008247589729e+00 1.94272470104615e-01 3.47201015375188e-04 
1.30154987568305e+00 1.94204513267170e-01 3.53573594803228e-04 
1.31301727546880e+00 1.94134698135628e-01 3.59775045875842e-04 
1.32448467525455e+00 1.94063057248044e-01 3.65943337728685e-04 
1.33595207504031e+00 1.93989560268316e-01 3.72157839222521e-04 
1.34741947482606e+00 1.93914176684198e-01 3.78418234503790e-04 
1.35888687461181e+00 1.93836875810993e-01 3.84724199997563e-04 
1.37035427439757e+00 1.93757626795342e-01 3.91075404301911e-04 
1.38182167418332e+00 1.93676398619091e-01 3.97471508081571e-04 
1.39328907396908e+00 1.93593160103256e-01 4.03912163960340e-04 
1.40475647375483e+00 1.93507879912079e-01 4.10397016415835e-04 
1.41622387354058e+00 1.93420526557167e-01 4.16925701674202e-04 
1.42769127332634e+00 1.93331068401732e-01 4.23497847604699e-04 
1.43915867311209e+00 1.93239473664928e-01 4.30113073615388e-04 
1.45062607289784e+00 1.93145710426266e-01 4.36770990549186e-04 
1.46209347268360e+00 1.93049746630148e-01 4.43471200580800e-04 
1.47356087246935e+00 1.92951550090477e-01 4.50213297114959e-04 
1.48502827225510e+00 1.92851088495376e-01 4.56996864683431e-04 
1.49649567204086e+00 1.92748329412004e-01 4.63721637209657e-04 
1.50796307182661e+00 1.92643329256995e-01 4.69971946795091e-04 
1.51943047161237e+00 1.92536431414536e-01 4.75846620141758e-04 
1.53089787139812e+00 1.92427615381293e-01 4.81748098226888e-04 
1.54236527118387e+00 1.92316860625107e-01 4.87676070582069e-04 
1.55383267096963e+00 1.92204146587675e-01 4.93630221622576e-04 
1.56530007075538e+00 1.92089452687269e-01 4.99610230610972e-04 
1.57676747054113e+00 1.91972758321500e-01 5.05615771617507e-04 
1.58823487032689e+00 1.91854042870119e-01 5.11646513484494e-04 
1.59970227011264e+00 1.91733285697862e-01 5.17702119792560e-04 
1.61116966989840e+00 1.91610466157329e-01 5.23782248823555e-04 
1.62263706968415e+00 1.91485563591907e-01 5.29886553526818e-04 
1.63410446946990e+00 1.91358557338741e-01 5.36014681486256e-04 
1.64557186925566e+00 1.91229426731731e-01 5.42166274886119e-04 
1.65703926904141e+00 1.91098151104581e-01 5.48340970479653e-04 
1.66850666882716e+00 1.90964709793887e-01 5.54538399557628e-04 
1.67997406861292e+00 1.90829082142263e-01 5.60758187917573e-04 
1.69144146839867e+00 1.90691247501511e-01 5.66999955835028e-04 
1.70290886818443e+00 1.90551185235828e-01 5.73263318032989e-04 
1.71437626797018e+00 1.90408874725059e-01 5.79547883655529e-04 
1.72584366775593e+00 1.90264295367986e-01 5.85853256239844e-04 
1.73731106754169e+00 1.90117426585664e-01 5.92179033689519e-04 
1.74877846732744e+00 1.89968247824792e-01 5.98524808250670e-04 
1.76024586711319e+00 1.89816738561126e-01 6.04890166486919e-04 
1.77171326689895e+00 1.89662878302937e-01 6.11274689256016e-04 
1.78318066668470e+00 1.89506646594506e-01 6.17677951687748e-04 
1.79464806647045e+00 1.89348023019658e-01 6.24099523163334e-04 
1.80611546625621e+00 1.89186987205339e-01 6.30538967294559e-04 
1.81758286604196e+00 1.89023518825238e-01 6.36995841905321e-04 
1.82905026582772e+00 1.88857597603438e-01 6.43469699013437e-04 
1.84051766561347e+00 1.88689203318118e-01 6.49960084813116e-04 
1.85198506539922e+00 1.88518315805286e-01 6.56466539660572e-04 
1.86345246518498e+00 1.88344914962560e-01 6.62988598059730e-04 
1.87491986497073e+00 1.88168980752985e-01 6.69525788648160e-04 
1.88638726475648e+00 1.87990493208882e-01 6.76077634186020e-04 
1.89785466454224e+00 1.87809432435753e-01 6.82889933273406e-04 
1.90932206432799e+00 1.87625516003234e-01 6.90504441711714e-04 
1.92078946411375e+00 1.87438136027009e-01 6.98674786213840e-04 
1.93225686389950e+00 1.87247255723136e-01 7.06869639181733e-04 
1.94372426368525e+00 1.87052838396648e-01 7.15088165705179e-04 
1.95519166347101e+00 1.86854847451253e-01 7.23329517755442e-04 
1.96665906325676e+00 1.86653246399168e-01 7.31592834144119e-04 
1.97812646304251e+00 1.86447998871082e-01 7.39877240485899e-04 
1.98959386282827e+00 1.86239068626258e-01 7.48181849165447e-04 
2.00106126261402e+00 1.86026419562751e-01 7.56505759308111e-04 
2.01252866239978e+00 1.85810015727772e-01 7.64848056755277e-04 
2.02399606218553e+00 1.85589821328167e-01 7.73207814045537e-04 
2.03546346197128e+00 1.85365800741033e-01 7.81584090398117e-04 
2.04693086175704e+00 1.85137918524451e-01 7.89975931702140e-04 
2.05839826154279e+00 1.84906139428355e-01 7.98382370511541e-04 
2.06986566132854e+00 1.84670428405516e-01 8.06802426042967e-04 
2.08133306111430e+00 1.84430750622650e-01 8.15235104180015e-04 
2.09280046090005e+00 1.84187071471649e-01 8.23679397483232e-04 
2.10426786068580e+00 1.83939356580930e-01 8.31391629102230e-04 
2.11573526047156e+00 1.83688462252821e-01 8.38268694861673e-04 
2.12720266025731e+00 1.83434501204071e-01 8.45038768961104e-04 
2.13867006004307e+00 1.83177456847814e-01 8.51808459888437e-04 
2.15013745982882e+00 1.82917312792692e-01 8.58577122866508e-04 
2.16160485961457e+00 1.82654052847725e-01 8.65344107522551e-04 
2.17307225940033e+00 1.82387661027196e-01 8.72108757926877e-04 
2.18453965918608e+00 1.82118121555557e-01 8.78870412633418e-04 
2.19600705897183e+00 1.81845418872362e-01 8.85717068064865e-04 
2.20747445875759e+00 1.81569427753082e-01 8.93144803401597e-04 
2.21894185854334e+00 1.81289512437670e-01 9.01061043039308e-04 
2.23040925832910e+00 1.81005647340341e-01 9.08975818956498e-04 
2.24187665811485e+00 1.80717807189581e-01 9.16888144576430e-04 
2.25334405790060e+00 1.80425967037707e-01 9.24797023464256e-04 
2.26481145768636e+00 1.80130102270475e-01 9.32701449402658e-04 
2.27627885747211e+00 1.79830188616755e-01 9.40600406471698e-04 
2.28774625725786e+00 1.79526202158250e-01 9.48492869134767e-04 
2.29921365704362e+00 1.79218119339273e-01 9.56377802328903e-04 
2.31068105682937e+00 1.78905916976562e-01 9.64254161558435e-04 
2.32214845661513e+00 1.78589572269153e-01 9.72120892996335e-04 
2.33361585640088e+00 1.78269062808288e-01 9.79976933589541e-04 
2.34508325618663e+00 1.77944366587361e-01 9.87821211167917e-04 
2.35655065597239e+00 1.77615462011915e-01 9.95652644560466e-04 
2.36801805575814e+00 1.77282327909657e-01 1.00347014371599e-03 
2.37948545554389e+00 1.76944943540513e-01 1.01127260982887e-03 
2.39095285532965e+00 1.76603288606716e-01 1.01905893546990e-03 
2.40242025511540e+00 1.76257343262911e-01 1.02682800472326e-03 
2.41388765490115e+00 1.75907088126290e-01 1.03457869332818e-03 
2.42535505468691e+00 1.75552504286738e-01 1.04230986882646e-03 
2.43682245447266e+00 1.75193573317007e-01 1.05002039071505e-03 
2.44828985425842e+00 1.74830277282891e-01 1.05770911060466e-03 
2.45975725404417e+00 1.74462598753417e-01 1.06537487238393e-03 
2.47122465382992e+00 1.74090520811043e-01 1.07301651238866e-03 
2.48269205361568e+00 1.73714027061849e-01 1.08063285957695e-03 
2.49415945340143e+00 1.73333101645740e-01 1.08822273571047e-03 
2.50562685318718e+00 1.72947729246633e-01 1.09640908736364e-03 
2.51709425297294e+00 1.72557009533829e-01 1.10518834055085e-03 
2.52856165275869e+00 1.72160909003257e-01 1.11394244656579e-03 
2.54002905254445e+00 1.71759403210456e-01 1.12266395349579e-03 
2.55149645233020e+00 1.71352468502081e-01 1.13135120422087e-03 
2.56296385211595e+00 1.70940082033543e-01 1.14000253038217e-03 
2.57443125190171e+00 1.70522221786650e-01 1.14861625271663e-03 
2.58589865168746e+00 1.70098866587234e-01 1.15719068140185e-03 
2.59736605147321e+00 1.69669996122758e-01 1.16572411641161e-03 
2.60883345125897e+00 1.69235590959897e-01 1.17421484788394e-03 
2.62030085104472e+00 1.68795632562083e-01 1.18266115649927e-03 
2.63176825083048e+00 1.68350103306998e-01 1.19106131387152e-03 
2.64323565061623e+00 1.67898986504017e-01 1.19941358294928e-03 
2.65470305040198e+00 1.67442266411591e-01 1.20771621842947e-03 
2.66617045018774e+00 1.66979928254546e-01 1.21596746718243e-03 
2.67763784997349e+00 1.66511958241311e-01 1.22416556868740e-03 
2.68910524975924e+00 1.66038343581041e-01 1.23230875548114e-03 
2.70057264954500e+00 1.65559072500648e-01 1.24039525361692e-03 
2.71204004933075e+00 1.65074134261715e-01 1.24842328313498e-03 
2.72350744911650e+00 1.64583519177287e-01 1.25639105854502e-03 
2.73497484890226e+00 1.64087218628529e-01 1.26429678931947e-03 
2.74644224868801e+00 1.63585225081240e-01 1.27213868039858e-03 
2.75790964847377e+00 1.63077532102217e-01 1.27991493270642e-03 
2.76937704825952e+00 1.62564134375446e-01 1.28762374367826e-03 
2.78084444804527e+00 1.62045027718128e-01 1.29526330779935e-03 
2.79231184783103e+00 1.61520209096506e-01 1.30283181715399e-03 
2.80377924761678e+00 1.60989676641503e-01 1.31005808211504e-03 
2.81524664740253e+00 1.60453871109563e-01 1.31688937363171e-03 
2.82671404718829e+00 1.59912887323707e-01 1.32359308009536e-03 
2.83818144697404e+00 1.59366730624803e-01 1.33022278979263e-03 
2.84964884675980e+00 1.58815407393926e-01 1.33677696523085e-03 
2.86111624654555e+00 1.58258925062821e-01 1.34325407123815e-03 
2.87258364633130e+00 1.57697292124138e-01 1.34965257546195e-03 
2.88405104611706e+00 1.57130518141429e-01 1.35597094887470e-03 
2.89551844590281e+00 1.56558613758912e-01 1.36220766628505e-03 
2.90698584568856e+00 1.55981590710974e-01 1.36836120685682e-03 
2.91845324547432e+00 1.55399461831421e-01 1.37443005463412e-03 
2.92992064526007e+00 1.54812241062461e-01 1.38041269907287e-03 
2.94138804504583e+00 1.54219943463406e-01 1.38630763557827e-03 
2.95285544483158e+00 1.53622585219093e-01 1.39211336604809e-03 
2.96432284461733e+00 1.53020183648011e-01 1.39782839942238e-03 
2.97579024440309e+00 1.52412757210127e-01 1.40345125223782e-03 
2.98725764418884e+00 1.51800325514400e-01 1.40898044918820e-03 
2.99872504397459e+00 1.51182909325976e-01 1.41428871972935e-03 
3.01019244376035e+00 1.50560753244321e-01 1.41917928569703e-03 
3.02165984354610e+00 1.49934232136895e-01 1.42378022597291e-03 
3.03312724333186e+00 1.49303371603679e-01 1.42828835876537e-03 
3.04459464311761e+00 1.48668198215723e-01 1.43270252137205e-03 
3.05606204290336e+00 1.48028739517971e-01 1.43702156212510e-03 
3.06752944268912e+00 1.47385024031792e-01 1.44124434084392e-03 
3.07899684247487e+00 1.46737081257219e-01 1.44536972928968e-03 
3.09046424226062e+00 1.46084941674887e-01 1.44939661162141e-03 
3.10193164204638e+00 1.45428636747659e-01 1.45332388485338e-03 
3.11339904183213e+00 1.44768198921950e-01 1.45715045931353e-03 
3.12486644161788e+00 1.44103661628725e-01 1.46087525910284e-03 
3.13633384140364e+00 1.43435059284189e-01 1.46449722255532e-03 
3.14780124118939e+00 1.42762427290134e-01 1.46801530269873e-03 
3.15926864097515e+00 1.42085802033976e-01 1.47142846771492e-03 
3.17073604076090e+00 1.41405220888438e-01 1.47473570140102e-03 
3.18220344054665e+00 1.40720722210906e-01 1.47793600362990e-03 
3.19367084033241e+00 1.40032345342438e-01 1.48102839081026e-03 
3.20513824011816e+00 1.39340130606420e-01 1.48401189634613e-03 
3.21660563990391e+00 1.38644119306880e-01 1.48688557109531e-03 
3.22807303968967e+00 1.37944353726437e-01 1.48964848382666e-03 
3.23954043947542e+00 1.37240877123891e-01 1.49229972167615e-03 
3.25100783926118e+00 1.36533733731456e-01 1.49483839060101e-03 
3.26247523904693e+00 1.35822968751615e-01 1.49726361583200e-03 
3.27394263883268e+00 1.35108628353615e-01 1.49957454232356e-03 
3.28541003861844e+00 1.34390759669581e-01 1.50177033520134e-03 
3.29687743840419e+00 1.33669410790253e-01 1.50385018020723e-03 
3.30834483818994e+00 1.32944630760345e-01 1.50581328414122e-03 
3.31981223797570e+00 1.32216469573520e-01 1.50765887530002e-03 
3.33127963776145e+00 1.31484978166981e-01 1.50938620391223e-03 
3.34274703754721e+00 1.30750208415667e-01 1.51099454256976e-03 
3.35421443733296e+00 1.30012213126067e-01 1.51248318665490e-03 
3.36568183711871e+00 1.29271046029637e-01 1.51385145476312e-03 
3.37714923690447e+00 1.28526761775820e-01 1.51509868912120e-03 
3.38861663669022e+00 1.27779415924674e-01 1.51622425600086e-03 
3.40008403647597e+00 1.27029064939098e-01 1.51722754612675e-03 
3.41155143626173e+00 1.26275766176664e-01 1.51810797507860e-03 
3.42301883604748e+00 1.25519577881038e-01 1.51886498368812e-03 
3.43448623583323e+00 1.24760559173015e-01 1.51949803843030e-03 
3.44595363561899e+00 1.23998770041135e-01 1.52000663180710e-03 
3.45742103540474e+00 1.23234271331907e-01 1.52039028272492e-03 
3.46888843519050e+00 1.22467124739627e-01 1.52064853686604e-03 
3.48035583497625e+00 1.21697392795791e-01 1.52078096705173e-03 
3.49182323476200e+00 1.20925138858110e-01 1.52078717359826e-03 
3.50329063454776e+00 1.20150427099111e-01 1.52066678466517e-03 
3.51475803433351e+00 1.19373322494353e-01 1.52041945659541e-03 
3.52622543411926e+00 1.18593890810223e-01 1.52004487424706e-03 
3.53769283390502e+00 1.17812198591347e-01 1.51954275131621e-03 
3.54916023369077e+00 1.17028313147592e-01 1.51891283065122e-03 
3.56062763347653e+00 1.16242302540679e-01 1.51815488455777e-03 
