Energy(eV)           EEDF(eV^-(3/2))      Anisotropy(eV^-(3/2))
3.16271767222708e-02 4.95899951429089e-02 1.67633144885098e-03 
9.48815301668123e-02 4.95454016663498e-02 5.41015340894301e-03 
1.58135883611354e-01 4.95324461842463e-02 5.36692638697822e-03 
2.21390237055895e-01 4.95273873258360e-02 5.34781971817989e-03 
2.84644590500437e-01 4.95233700663377e-02 5.33196430434098e-03 
3.47898943944979e-01 4.95167997064087e-02 5.32234793394581e-03 
4.11153297389520e-01 4.95068228296769e-02 5.31525833379691e-03 
4.74407650834062e-01 4.94932881579700e-02 5.30895616407140e-03 
5.37662004278603e-01 4.94762647305719e-02 5.30295642050275e-03 
6.00916357723145e-01 4.94558407930301e-02 5.29711457287348e-03 
6.64170711167686e-01 4.94320170209644e-02 5.29151588823759e-03 
7.27425064612228e-01 4.94047942919088e-02 5.28619534463685e-03 
7.90679418056769e-01 4.93742051696980e-02 5.28104292885562e-03 
8.53933771501311e-01 4.93402546900777e-02 5.27597452660342e-03 
9.17188124945853e-01 4.93029465003953e-02 5.27093907376582e-03 
9.80442478390394e-01 4.92622848822423e-02 5.26590740240704e-03 
1.04369683183494e+00 4.92183995721248e-02 5.26086137113781e-03 
1.10695118527948e+00 4.91718248927953e-02 5.25576041625201e-03 
1.17020553872402e+00 4.91225652292779e-02 5.25061520622883e-03 
1.23345989216856e+00 4.90706139010536e-02 5.24548922773678e-03 
1.29671424561310e+00 4.90155943694503e-02 5.24077367219329e-03 
1.35996859905764e+00 4.89576794291109e-02 5.23688188502729e-03 
1.42322295250219e+00 4.88970777007507e-02 5.23382220468279e-03 
1.48647730594673e+00 4.88337834130289e-02 5.23137546612559e-03 
1.54973165939127e+00 4.87680157723224e-02 5.22935499134501e-03 
1.61298601283581e+00 4.87003288987255e-02 5.22760976419123e-03 
1.67624036628035e+00 4.86307207569755e-02 5.22602911902411e-03 
1.73949471972489e+00 4.85591906017028e-02 5.22451384231234e-03 
1.80274907316943e+00 4.84857388699687e-02 5.22298150172408e-03 
1.86600342661398e+00 4.84103670948644e-02 5.22136311445515e-03 
1.92925778005852e+00 4.83330778348481e-02 5.21960636738916e-03 
1.99251213350306e+00 4.82529370849597e-02 5.21767313316208e-03 
2.05576648694760e+00 4.81699135130593e-02 5.21550658154051e-03 
2.11902084039214e+00 4.80840133025604e-02 5.21306552049302e-03 
2.18227519383668e+00 4.79960225803446e-02 5.21030653721903e-03 
2.24552954728123e+00 4.79060000543886e-02 5.20729984055269e-03 
2.30878390072577e+00 4.78134456395523e-02 5.20428830164108e-03 
2.37203825417031e+00 4.77183595318194e-02 5.20148676011452e-03 
2.43529260761485e+00 4.76207393602640e-02 5.19890853950717e-03 
2.49854696105939e+00 4.75205842134962e-02 5.19646584035765e-03 
2.56180131450393e+00 4.74175861800461e-02 5.19408514592381e-03 
2.62505566794847e+00 4.73114094668566e-02 5.19169221944104e-03 
2.68831002139302e+00 4.72020579792624e-02 5.18921609962448e-03 
2.75156437483756e+00 4.70895370415398e-02 5.18659956516355e-03 
2.81481872828210e+00 4.69738534029410e-02 5.18378890055162e-03 
2.87807308172664e+00 4.68552520739642e-02 5.18073450403042e-03 
2.94132743517118e+00 4.67338280445366e-02 5.17739945372672e-03 
3.00458178861572e+00 4.66095919219304e-02 5.17374709283978e-03 
3.06783614206027e+00 4.64827399495544e-02 5.16974048457844e-03 
3.13109049550481e+00 4.63534226843838e-02 5.16535250460520e-03 
3.19434484894935e+00 4.62216541996455e-02 5.16056031852828e-03 
3.25759920239389e+00 4.60874498025396e-02 5.15548532887228e-03 
3.32085355583843e+00 4.59508184028799e-02 5.15046320716351e-03 
3.38410790928297e+00 4.58117581919328e-02 5.14573578868049e-03 
3.44736226272751e+00 4.56702647444864e-02 5.14129315592626e-03 
3.51061661617206e+00 4.55263359308784e-02 5.13704016390008e-03 
3.57387096961660e+00 4.53799718600776e-02 5.13289002396271e-03 
3.63712532306114e+00 4.52311887074001e-02 5.12876230513582e-03 
3.70037967650568e+00 4.50801365714471e-02 5.12458506184841e-03 
3.76363402995022e+00 4.49268216054358e-02 5.12029863051291e-03 
3.82688838339476e+00 4.47712519150197e-02 5.11584539945311e-03 
3.89014273683931e+00 4.46134374928778e-02 5.11117329172610e-03 
3.95339709028385e+00 4.44533901544368e-02 5.10623531613358e-03 
4.01665144372839e+00 4.42911234750395e-02 5.10099235977881e-03 
4.07990579717293e+00 4.41264346075922e-02 5.09541093939358e-03 
4.14316015061747e+00 4.39592733534413e-02 5.08945162215359e-03 
4.20641450406201e+00 4.37896588867168e-02 5.08308194178262e-03 
4.26966885750655e+00 4.36176119743719e-02 5.07627494984563e-03 
4.33292321095110e+00 4.34431549188737e-02 5.06900697665423e-03 
4.39617756439564e+00 4.32663115006933e-02 5.06125717265981e-03 
4.45943191784018e+00 4.30871069361544e-02 5.05307530256646e-03 
4.52268627128472e+00 4.29055629652631e-02 5.04460409530358e-03 
4.58594062472926e+00 4.27220190818729e-02 5.03593626708870e-03 
4.64919497817380e+00 4.25365425785779e-02 5.02707238345089e-03 
4.71244933161835e+00 4.23491493669986e-02 5.01797057311645e-03 
4.77570368506289e+00 4.21598571977977e-02 5.00859202617619e-03 
4.83895803850743e+00 4.19686855719122e-02 4.99890259804849e-03 
4.90221239195197e+00 4.17756556095967e-02 4.98887248397442e-03 
4.96546674539651e+00 4.15807899660976e-02 4.97847591378098e-03 
5.02872109884105e+00 4.13841127052904e-02 4.96768588487831e-03 
5.09197545228560e+00 4.11852959151826e-02 4.95642205869211e-03 
5.15522980573014e+00 4.09843565923529e-02 4.94455012177576e-03 
5.21848415917468e+00 4.07813338645542e-02 4.93202559814383e-03 
5.28173851261922e+00 4.05762673479067e-02 4.91886173264522e-03 
5.34499286606376e+00 4.03691971066749e-02 4.90507253435361e-03 
5.40824721950830e+00 4.01601635732965e-02 4.89067269151708e-03 
5.47150157295284e+00 3.99492075114734e-02 4.87567747555043e-03 
5.53475592639739e+00 3.97363699410002e-02 4.86010266688843e-03 
5.59801027984193e+00 3.95216921043329e-02 4.84396462315138e-03 
5.66126463328647e+00 3.93052153826926e-02 4.82728069294240e-03 
5.72451898673101e+00 3.90869812223574e-02 4.81006904389926e-03 
5.78777334017555e+00 3.88670310612558e-02 4.79234817664206e-03 
5.85102769362009e+00 3.86454062957678e-02 4.77413685248345e-03 
5.91428204706464e+00 3.84221482123157e-02 4.75545403122025e-03 
5.97753640050918e+00 3.81972979586663e-02 4.73631906400641e-03 
6.04079075395372e+00 3.79708708529605e-02 4.71675662598807e-03 
6.10404510739826e+00 3.77427568953192e-02 4.69680177919940e-03 
6.16729946084280e+00 3.75129969603781e-02 4.67647749928220e-03 
6.23055381428734e+00 3.72816312315620e-02 4.65580526135606e-03 
6.29380816773188e+00 3.70486996832768e-02 4.63480106867536e-03 
6.35706252117643e+00 3.68142420543670e-02 4.61348104601061e-03 
6.42031687462097e+00 3.65782977906087e-02 4.59186137557272e-03 
6.48357122806551e+00 3.63409060240930e-02 4.56995823163076e-03 
6.54682558151005e+00 3.61021055222103e-02 4.54778774469473e-03 
6.61007993495459e+00 3.58619346708507e-02 4.52536594962368e-03 
6.67333428839913e+00 3.56204314291564e-02 4.50270875235806e-03 
6.73658864184368e+00 3.53776333168359e-02 4.47983190738167e-03 
6.79984299528822e+00 3.51335773720877e-02 4.45675100717507e-03 
6.86309734873276e+00 3.48883001409192e-02 4.43348144806832e-03 
6.92635170217730e+00 3.46418376397649e-02 4.41003841100731e-03 
6.98960605562184e+00 3.43942253480583e-02 4.38644074359344e-03 
7.05286040906638e+00 3.41451680722081e-02 4.36272281456575e-03 
7.11611476251093e+00 3.38940543524355e-02 4.33889983033636e-03 
7.17936911595547e+00 3.36409297573099e-02 4.31493896028690e-03 
7.24262346940001e+00 3.33858395953165e-02 4.29085350749388e-03 
7.30587782284455e+00 3.31288284962145e-02 4.26665958848504e-03 
7.36913217628909e+00 3.28699404060973e-02 4.24237275235551e-03 
7.43238652973363e+00 3.26092185608028e-02 4.21800799237407e-03 
7.49564088317817e+00 3.23467054839790e-02 4.19357974796073e-03 
7.55889523662272e+00 3.20824429646007e-02 4.16910191742221e-03 
7.62214959006726e+00 3.18164720577550e-02 4.14458786133808e-03 
7.68540394351180e+00 3.15488330659609e-02 4.12005041617846e-03 
7.74865829695634e+00 3.12795655423937e-02 4.09550189890185e-03 
7.81191265040088e+00 3.10087082757044e-02 4.07095412123443e-03 
7.87516700384542e+00 3.07362992954085e-02 4.04641839529504e-03 
7.93842135728997e+00 3.04623758599048e-02 4.02190554834029e-03 
8.00167571073451e+00 3.01869744637646e-02 3.99741991814665e-03 
8.06493006417905e+00 2.99104850550364e-02 3.97295048745625e-03 
8.12818441762359e+00 2.96332549369718e-02 3.94851470558396e-03 
8.19143877106813e+00 2.93553101437104e-02 3.92414105191474e-03 
8.25469312451267e+00 2.90766759832376e-02 3.89983806740216e-03 
8.31794747795722e+00 2.87973770387764e-02 3.87561387684710e-03 
8.38120183140176e+00 2.85174371853718e-02 3.85147619679830e-03 
8.44445618484630e+00 2.82368795926954e-02 3.82743172835173e-03 
8.50771053829084e+00 2.79557268332550e-02 3.80348538063969e-03 
8.57096489173538e+00 2.76740010063659e-02 3.77964171041842e-03 
8.63421924517992e+00 2.73917236425746e-02 3.75590638363109e-03 
8.69747359862446e+00 2.71089156099038e-02 3.73228532588856e-03 
8.76072795206901e+00 2.68255971403062e-02 3.70878405323444e-03 
8.82398230551355e+00 2.65417878366476e-02 3.68540774359865e-03 
8.88723665895809e+00 2.62575066906676e-02 3.66216124602188e-03 
8.95049101240263e+00 2.59727720906107e-02 3.63904909510370e-03 
9.01374536584717e+00 2.56876018389500e-02 3.61607551995466e-03 
9.07699971929171e+00 2.54020131605402e-02 3.59324445793152e-03 
9.14025407273625e+00 2.51160227200371e-02 3.57055956330388e-03 
9.20350842618080e+00 2.48296466304583e-02 3.54802422030133e-03 
9.26676277962534e+00 2.45429004702375e-02 3.52564155182465e-03 
9.33001713306988e+00 2.42557992920297e-02 3.50341443220638e-03 
9.39327148651442e+00 2.39683576392818e-02 3.48134549490557e-03 
9.45652583995896e+00 2.36805895552969e-02 3.45943714369957e-03 
9.51978019340350e+00 2.33925085994250e-02 3.43769156028459e-03 
9.58303454684805e+00 2.31041278562666e-02 3.41611071530057e-03 
9.64628890029259e+00 2.28154599513684e-02 3.39469637568576e-03 
9.70954325373713e+00 2.25265170604750e-02 3.37345011504944e-03 
9.77279760718167e+00 2.22373109247011e-02 3.35237332067023e-03 
9.83605196062621e+00 2.19478528597653e-02 3.33146720323585e-03 
9.89930631407075e+00 2.16581537706165e-02 3.31073280348359e-03 
9.96256066751529e+00 2.13682241605924e-02 3.29017100132773e-03 
1.00258150209598e+01 2.10780741454828e-02 3.26974180057921e-03 
1.00890693744044e+01 2.07894380610944e-02 3.24938330814399e-03 
1.01523237278489e+01 2.05024772055775e-02 3.22919325589070e-03 
1.02155780812935e+01 2.02171772235872e-02 3.20918226463358e-03 
1.02788324347380e+01 1.99335237249078e-02 3.18935045504720e-03 
1.03420867881825e+01 1.96515022929992e-02 3.16969783288254e-03 
1.04053411416271e+01 1.93710984968003e-02 3.15022429396114e-03 
1.04685954950716e+01 1.90922978984320e-02 3.13092963109093e-03 
1.05318498485162e+01 1.88150860638137e-02 3.11181353875085e-03 
1.05951042019607e+01 1.85394485695722e-02 3.09287562028752e-03 
1.06583585554053e+01 1.82653710124155e-02 3.07411539496785e-03 
1.07216129088498e+01 1.79928390148227e-02 3.05553227529927e-03 
1.07848672622943e+01 1.77218382384829e-02 3.03712491066406e-03 
1.08481216157389e+01 1.74523545068313e-02 3.01889136973989e-03 
1.09113759691834e+01 1.71843737862957e-02 3.00083048890684e-03 
1.09746303226280e+01 1.69178820688865e-02 2.98294171166793e-03 
1.10378846760725e+01 1.66528653817698e-02 2.96522438993123e-03 
1.11011390295170e+01 1.63893097941831e-02 2.94767779128080e-03 
1.11643933829616e+01 1.61272014257461e-02 2.93030110460688e-03 
1.12276477364061e+01 1.58665264524034e-02 2.91309344660622e-03 
1.12909020898507e+01 1.56072711136040e-02 2.89605386681478e-03 
1.13541564432952e+01 1.53494217173731e-02 2.87918135341089e-03 
1.14174107967398e+01 1.50929646464798e-02 2.86247483770709e-03 
1.14806651501843e+01 1.48378863627292e-02 2.84588604791809e-03 
1.15439195036288e+01 1.45841698038364e-02 2.82913081060474e-03 
1.16071738570734e+01 1.43318028293057e-02 2.81179717809763e-03 
1.16704282105179e+01 1.40808551559134e-02 2.79372536100930e-03 
1.17336825639625e+01 1.38313933771608e-02 2.77495140614498e-03 
1.17969369174070e+01 1.35834810103504e-02 2.75551074336063e-03 
1.18601912708515e+01 1.33371785431505e-02 2.73543818251270e-03 
1.19234456242961e+01 1.30925434815823e-02 2.71476791034166e-03 
1.19866999777406e+01 1.28496303975101e-02 2.69353160615246e-03 
1.20499543311852e+01 1.26086272130683e-02 2.67175217390083e-03 
1.21132086846297e+01 1.23699117307356e-02 2.64945533410401e-03 
1.21764630380742e+01 1.21335220368647e-02 2.62669220154101e-03 
1.22397173915188e+01 1.18994932833344e-02 2.60349335278052e-03 
1.23029717449633e+01 1.16678577655538e-02 2.57988865621008e-03 
1.23662260984079e+01 1.14386449991237e-02 2.55590727603801e-03 
1.24294804518524e+01 1.12118817963108e-02 2.53157767632464e-03 
1.24927348052970e+01 1.09875923411797e-02 2.50692762564858e-03 
1.25559891587415e+01 1.07657982644313e-02 2.48198420194942e-03 
1.26192435121860e+01 1.05465187168720e-02 2.45677379830107e-03 
1.26824978656306e+01 1.03297704424328e-02 2.43131390052483e-03 
1.27457522190751e+01 1.01155667421236e-02 2.40558590236358e-03 
1.28090065725197e+01 9.90391873175576e-03 2.37955409036050e-03 
1.28722609259642e+01 9.69484872260585e-03 2.35322002839497e-03 
1.29355152794087e+01 9.48837627867770e-03 2.32661325283067e-03 
1.29987696328533e+01 9.28451830200987e-03 2.29976248363163e-03 
1.30620239862978e+01 9.08328911725631e-03 2.27269563127576e-03 
1.31252783397424e+01 8.88470055487585e-03 2.24543980449262e-03 
1.31885326931869e+01 8.68876203345947e-03 2.21802131838075e-03 
1.32517870466315e+01 8.49548064061008e-03 2.19046568472744e-03 
1.33150414000760e+01 8.30486121608997e-03 2.16279760827791e-03 
1.33782957535205e+01 8.11690643246665e-03 2.13504103767452e-03 
1.34415501069651e+01 7.93161686846406e-03 2.10721920530844e-03 
1.35048044604096e+01 7.74899108181558e-03 2.07935461465512e-03 
1.35680588138542e+01 7.56902568403274e-03 2.05146903373000e-03 
1.36313131672987e+01 7.39171541359315e-03 2.02358350514318e-03 
1.36945675207432e+01 7.21705320814835e-03 1.99570481402684e-03 
1.37578218741878e+01 7.04502769342386e-03 1.96780858941717e-03 
1.38210762276323e+01 6.87562936359270e-03 1.93986770480374e-03 
1.38843305810769e+01 6.70885683007742e-03 1.91188770793223e-03 
1.39475849345214e+01 6.54470657971543e-03 1.88389254679459e-03 
1.40108392879660e+01 6.38317305942921e-03 1.85590531342185e-03 
1.40740936414105e+01 6.22424875935745e-03 1.82794825801661e-03 
1.41373479948550e+01 6.06792429419401e-03 1.80004280364782e-03 
1.42006023482996e+01 5.91418848290876e-03 1.77220956131519e-03 
1.42638567017441e+01 5.76302842663098e-03 1.74446834549483e-03 
1.43271110551887e+01 5.61442958485092e-03 1.71683818999244e-03 
1.43903654086332e+01 5.46837584975053e-03 1.68933736419584e-03 
1.44536197620777e+01 5.32484961880388e-03 1.66198338957599e-03 
1.45168741155223e+01 5.18383186548454e-03 1.63479305652106e-03 
1.45801284689668e+01 5.04530220820631e-03 1.60778244136615e-03 
1.46433828224114e+01 4.90923897735869e-03 1.58096692368895e-03 
1.47066371758559e+01 4.77561928055171e-03 1.55432851778232e-03 
1.47698915293005e+01 4.64441071758292e-03 1.52780067505075e-03 
1.48331458827450e+01 4.51559360979146e-03 1.50133261510298e-03 
1.48964002361895e+01 4.38915887298818e-03 1.47492773618863e-03 
1.49596545896341e+01 4.26509537269789e-03 1.44860983188507e-03 
1.50229089430786e+01 4.14339002198577e-03 1.42240331625387e-03 
1.50861632965232e+01 4.02408861003607e-03 1.39632354178440e-03 
1.51494176499677e+01 3.90718172962679e-03 1.37039498128199e-03 
1.52126720034122e+01 3.79264846510687e-03 1.34463783330470e-03 
1.52759263568568e+01 3.68046637625668e-03 1.31907052741242e-03 
1.53391807103013e+01 3.57061158859689e-03 1.29371055760093e-03 
1.54024350637459e+01 3.46305888084591e-03 1.26857450821865e-03 
1.54656894171904e+01 3.35778176957679e-03 1.24367808013555e-03 
1.55289437706350e+01 3.25475259102374e-03 1.21903611641374e-03 
1.55921981240795e+01 3.15394258021538e-03 1.19466262514888e-03 
1.56554524775240e+01 3.05532194777269e-03 1.17057080846800e-03 
1.57187068309686e+01 2.95885995304597e-03 1.14677309703970e-03 
1.57819611844131e+01 2.86452497404785e-03 1.12328059924641e-03 
1.58452155378577e+01 2.77227557681511e-03 1.09979078030418e-03 
1.59084698913022e+01 2.68209858688186e-03 1.07630883840694e-03 
1.59717242447467e+01 2.59395289721256e-03 1.05282745587434e-03 
1.60349785981913e+01 2.50785443576110e-03 1.02932064427443e-03 
1.60982329516358e+01 2.42377254506488e-03 1.00580030828570e-03 
1.61614873050804e+01 2.34172764662355e-03 9.82289291456517e-04 
1.62247416585249e+01 2.26169006921853e-03 9.58828929936694e-04 
1.62879960119695e+01 2.18367342508964e-03 9.35445135581949e-04 
1.63512503654140e+01 2.10764380088879e-03 9.12176340973505e-04 
1.64145047188585e+01 2.03360852389384e-03 8.89043136641853e-04 
1.64777590723031e+01 1.96153035331987e-03 8.66083576835635e-04 
1.65410134257476e+01 1.89141219359652e-03 8.43336918984545e-04 
1.66042677791922e+01 1.82322013811502e-03 8.20866346830473e-04 
1.66675221326367e+01 1.75694425571428e-03 7.98697265827085e-04 
1.67307764860812e+01 1.69253655002523e-03 7.76851958654025e-04 
1.67940308395258e+01 1.62998362129257e-03 7.55335523451959e-04 
1.68572851929703e+01 1.56923682677716e-03 7.34167468160367e-04 
1.69205395464149e+01 1.51027977477769e-03 7.13350865599141e-04 
1.69837938998594e+01 1.45306352208824e-03 6.92898334044426e-04 
1.70470482533039e+01 1.39757952074000e-03 6.72788874666905e-04 
1.71103026067485e+01 1.34381080213224e-03 6.53000580898453e-04 
1.71735569601930e+01 1.29174004045706e-03 6.33530158845527e-04 
1.72368113136376e+01 1.24132102422300e-03 6.14392510878108e-04 
1.73000656670821e+01 1.19253431324256e-03 5.95592728993747e-04 
1.73633200205267e+01 1.14533318096230e-03 5.77143697033490e-04 
1.74265743739712e+01 1.09969642498894e-03 5.59047836573455e-04 
1.74898287274157e+01 1.05557725206667e-03 5.41314972025383e-04 
1.75530830808603e+01 1.01295252464526e-03 5.23941552577971e-04 
1.76163374343048e+01 9.71775124774501e-04 5.06932548541784e-04 
1.76795917877494e+01 9.32022282193083e-04 4.90285118915970e-04 
1.77428461411939e+01 8.93648992871064e-04 4.74007332476207e-04 
1.78061004946384e+01 8.56631527132631e-04 4.58096727941047e-04 
1.78693548480830e+01 8.20925602828221e-04 4.42559587056603e-04 
1.79326092015275e+01 7.86506823866234e-04 4.27392002012459e-04 
1.79958635549721e+01 7.53331860701772e-04 4.12597798044868e-04 
1.80591179084166e+01 7.21375509184459e-04 3.98169628614546e-04 
1.81223722618612e+01 6.90595315887534e-04 3.84108379427202e-04 
1.81856266153057e+01 6.60966888114208e-04 3.70407598312859e-04 
1.82488809687502e+01 6.32449803790570e-04 3.57069513822412e-04 
1.83121353221948e+01 6.05019637505865e-04 3.44087792572885e-04 
1.83753896756393e+01 5.78637276096328e-04 3.31463432751873e-04 
1.84386440290839e+01 5.53278451194517e-04 3.19189329578525e-04 
1.85018983825284e+01 5.28905470343291e-04 3.07266984605369e-04 
1.85651527359729e+01 5.05495267719444e-04 2.95692451209824e-04 
1.86284070894175e+01 4.83011907796688e-04 2.84467866312484e-04 
1.86916614428620e+01 4.61431024710776e-04 2.73585498402563e-04 
1.87549157963066e+01 4.40717199204494e-04 2.63042599157914e-04 
1.88181701497511e+01 4.20846804109704e-04 2.52829819468619e-04 
1.88814245031957e+01 4.01786171892033e-04 2.42943842584960e-04 
1.89446788566402e+01 3.83512488622969e-04 2.33375216443778e-04 
1.90079332100847e+01 3.65993836902721e-04 2.24120153557230e-04 
1.90711875635293e+01 3.49208274319403e-04 2.15169181915835e-04 
1.91344419169738e+01 3.33125618686269e-04 2.06518132602133e-04 
1.91976962704184e+01 3.17724842741985e-04 1.98157584987428e-04 
1.92609506238629e+01 3.02977473346102e-04 1.90083069663788e-04 
1.93242049773074e+01 2.88863428961385e-04 1.82285278133824e-04 
1.93874593307520e+01 2.75355909955544e-04 1.74759513248339e-04 
1.94507136841965e+01 2.62435799546223e-04 1.67496629817451e-04 
1.95139680376411e+01 2.50077928379141e-04 1.60491767790702e-04 
1.95772223910856e+01 2.38264153353757e-04 1.53735987806154e-04 
1.96404767445302e+01 2.26970885973394e-04 1.47224324196111e-04 
