Energy(eV)           EEDF(eV^-(3/2))      Anisotropy(eV^-(3/2))
2.50159427101690e-03 8.43852676923986e-01 9.55050542007507e-05 
7.50478281305069e-03 8.43645743482580e-01 1.54729646686449e-04 
1.25079713550845e-02 8.43365770388547e-01 2.23232204242106e-04 
1.75111598971183e-02 8.43056449564105e-01 2.72735324165050e-04 
2.25143484391521e-02 8.42743402742813e-01 3.07053237426404e-04 
2.75175369811859e-02 8.42445449122004e-01 3.33137484834171e-04 
3.25207255232196e-02 8.42156930120272e-01 3.53090542973634e-04 
3.75239140652534e-02 8.41888604066969e-01 3.65019508857520e-04 
4.25271026072872e-02 8.41641703229116e-01 3.73152203087320e-04 
4.75302911493210e-02 8.41413863593854e-01 3.76011852116330e-04 
5.25334796913548e-02 8.41210604130574e-01 3.75054008587902e-04 
5.75366682333886e-02 8.41025956728536e-01 3.71694664515043e-04 
6.25398567754224e-02 8.40862872515320e-01 3.65774804482602e-04 
6.75430453174562e-02 8.40716204906574e-01 3.58457305709563e-04 
7.25462338594900e-02 8.40587513307631e-01 3.49223565966115e-04 
7.75494224015238e-02 8.40472889279735e-01 3.38992962953623e-04 
8.25526109435576e-02 8.40373102116591e-01 3.27433936722874e-04 
8.75557994855914e-02 8.40284973343239e-01 3.15340508482941e-04 
9.25589880276252e-02 8.40208821222901e-01 3.02628155858305e-04 
9.75621765696589e-02 8.40141836469139e-01 2.90047557617255e-04 
1.02565365111693e-01 8.40084117891445e-01 2.76899157717823e-04 
1.07568553653727e-01 8.40033718433564e-01 2.63770731138742e-04 
1.12571742195760e-01 8.39990601913193e-01 2.50481863953559e-04 
1.17574930737794e-01 8.39953124430704e-01 2.37597463179415e-04 
1.22578119279828e-01 8.39921194056357e-01 2.25053586519591e-04 
1.27581307821862e-01 8.39893378878510e-01 2.13396335555463e-04 
1.32584496363895e-01 8.39869599393631e-01 2.01243196902263e-04 
1.37587684905929e-01 8.39849225690281e-01 1.88879019581393e-04 
1.42590873447963e-01 8.39832133533757e-01 1.77004754946483e-04 
1.47594061989997e-01 8.39817466789190e-01 1.66100854298163e-04 
1.52597250532031e-01 8.39805124377648e-01 1.56499950719961e-04 
1.57600439074064e-01 8.39794261477183e-01 1.48701920578332e-04 
1.62603627616098e-01 8.39784843524239e-01 1.40087336140357e-04 
1.67606816158132e-01 8.39776821289038e-01 1.30698043554678e-04 
1.72610004700166e-01 8.39770121470087e-01 1.22417743001924e-04 
1.77613193242200e-01 8.39764271311442e-01 1.15659024889540e-04 
1.82616381784233e-01 8.39759237072268e-01 1.09478743023543e-04 
1.87619570326267e-01 8.39754782861828e-01 1.04105558983164e-04 
1.92622758868301e-01 8.39750887311734e-01 9.95635496595625e-05 
1.97625947410335e-01 8.39747341004287e-01 9.60590598534329e-05 
2.02629135952369e-01 8.39744136014097e-01 9.31855638559158e-05 
2.07632324494402e-01 8.39741143002347e-01 9.10689983079333e-05 
2.12635513036436e-01 8.39738359195158e-01 8.96689470231897e-05 
2.17638701578470e-01 8.39735673492990e-01 8.90785435453713e-05 
2.22641890120504e-01 8.39733085594375e-01 8.92781922967101e-05 
2.27645078662538e-01 8.39730495394318e-01 9.03224133398034e-05 
2.32648267204571e-01 8.39727902149882e-01 9.21338060133949e-05 
2.37651455746605e-01 8.39725218801729e-01 9.47338731562342e-05 
2.42654644288639e-01 8.39722440988111e-01 9.81591732585699e-05 
2.47657832830673e-01 8.39719477964896e-01 1.02402200607803e-04 
2.52661021372707e-01 8.39716319269094e-01 1.07395541803504e-04 
2.57664209914740e-01 8.39712879625266e-01 1.13120948137334e-04 
2.62667398456774e-01 8.39709140577218e-01 1.19646330125761e-04 
2.67670586998808e-01 8.39705003678684e-01 1.26941235575011e-04 
2.72673775540842e-01 8.39700440198454e-01 1.35046656981382e-04 
2.77676964082875e-01 8.39695339296057e-01 1.43931625270018e-04 
2.82680152624909e-01 8.39689659327429e-01 1.53780764383030e-04 
2.87683341166943e-01 8.39683252703929e-01 1.64519867336384e-04 
2.92686529708977e-01 8.39676064847266e-01 1.75537928857802e-04 
2.97689718251011e-01 8.39668039495264e-01 1.86886405050857e-04 
3.02692906793044e-01 8.39659109612245e-01 1.99885310601879e-04 
3.07696095335078e-01 8.39648970233708e-01 2.14386315124087e-04 
3.12699283877112e-01 8.39637527085441e-01 2.29251378109830e-04 
3.17702472419146e-01 8.39624683026962e-01 2.44480268178471e-04 
3.22705660961180e-01 8.39610338053829e-01 2.60072754373666e-04 
3.27708849503213e-01 8.39594389300161e-01 2.76028602293645e-04 
3.32712038045247e-01 8.39576731041399e-01 2.92347570991662e-04 
3.37715226587281e-01 8.39557254697323e-01 3.09029410421776e-04 
3.42718415129315e-01 8.39535848835317e-01 3.26073859268382e-04 
3.47721603671349e-01 8.39512399173923e-01 3.43534816899488e-04 
3.52724792213382e-01 8.39486773478802e-01 3.62587453469313e-04 
3.57727980755416e-01 8.39458509020066e-01 3.83110925949941e-04 
3.62731169297450e-01 8.39427445447136e-01 4.04061841633439e-04 
3.67734357839484e-01 8.39393418449391e-01 4.25439726348234e-04 
3.72737546381518e-01 8.39356259764126e-01 4.47244078671833e-04 
3.77740734923551e-01 8.39315797185143e-01 4.69474367561606e-04 
3.82743923465585e-01 8.39271854571989e-01 4.92130030115638e-04 
3.87747112007619e-01 8.39224251859881e-01 5.15210469480928e-04 
3.92750300549653e-01 8.39172805070338e-01 5.38715052834025e-04 
3.97753489091687e-01 8.39117326322568e-01 5.62673153332264e-04 
4.02756677633720e-01 8.39057611789418e-01 5.87648760632336e-04 
4.07759866175754e-01 8.38993230543825e-01 6.13586966667738e-04 
4.12763054717788e-01 8.38923962050651e-01 6.39974220036993e-04 
4.17766243259822e-01 8.38849581399036e-01 6.66809582086399e-04 
4.22769431801855e-01 8.38769859320734e-01 6.94092060007784e-04 
4.27772620343889e-01 8.38684562209594e-01 7.21820604593638e-04 
4.32775808885923e-01 8.38593452142248e-01 7.49994107992676e-04 
4.37778997427957e-01 8.38496286900026e-01 7.78611401475693e-04 
4.42782185969991e-01 8.38392819992169e-01 8.07671253175441e-04 
4.47785374512024e-01 8.38282800680366e-01 8.37172365833674e-04 
4.52788563054058e-01 8.38165974004669e-01 8.67113374536570e-04 
4.57791751596092e-01 8.38042080810837e-01 8.97492844434550e-04 
4.62794940138126e-01 8.37910857779143e-01 9.28309268450167e-04 
4.67798128680160e-01 8.37772037454708e-01 9.59561064968439e-04 
4.72801317222193e-01 8.37625348279398e-01 9.91246575519621e-04 
4.77804505764227e-01 8.37470514625334e-01 1.02336406244662e-03 
4.82807694306261e-01 8.37307256830071e-01 1.05591170656105e-03 
4.87810882848295e-01 8.37135291233480e-01 1.08888760477240e-03 
4.92814071390329e-01 8.36954330216404e-01 1.12228976770864e-03 
4.97817259932362e-01 8.36764082241118e-01 1.15607053017350e-03 
5.02820448474396e-01 8.36564282260473e-01 1.18955361187487e-03 
5.07823637016430e-01 8.36355091696601e-01 1.22279826194644e-03 
5.12826825558464e-01 8.36136235083042e-01 1.25643451335148e-03 
5.17830014100498e-01 8.35907433672588e-01 1.29046013477846e-03 
5.22833202642531e-01 8.35668405480524e-01 1.32487280661368e-03 
5.27836391184565e-01 8.35418865329615e-01 1.35967011885942e-03 
5.32839579726599e-01 8.35158524896887e-01 1.39484956905687e-03 
5.37842768268633e-01 8.34887092762217e-01 1.43040856020138e-03 
5.42845956810666e-01 8.34604274458804e-01 1.46634439865000e-03 
5.47849145352700e-01 8.34309772525542e-01 1.50265429204222e-03 
5.52852333894734e-01 8.34003286561327e-01 1.53933534720766e-03 
5.57855522436768e-01 8.33684513281357e-01 1.57638456807512e-03 
5.62858710978802e-01 8.33353146575455e-01 1.61379885358850e-03 
5.67861899520835e-01 8.33008877568440e-01 1.65157499563169e-03 
5.72865088062869e-01 8.32651394682611e-01 1.68970967694975e-03 
5.77868276604903e-01 8.32280383702353e-01 1.72819946907733e-03 
5.82871465146937e-01 8.31895527840927e-01 1.76704083028274e-03 
5.87874653688971e-01 8.31496507809461e-01 1.80623010352004e-03 
5.92877842231004e-01 8.31083001888189e-01 1.84576351438989e-03 
5.97881030773038e-01 8.30654685999970e-01 1.88563716911924e-03 
6.02884219315072e-01 8.30211233786122e-01 1.92584705255358e-03 
6.07887407857106e-01 8.29752316684602e-01 1.96638902616379e-03 
6.12890596399140e-01 8.29277604010570e-01 2.00725882608376e-03 
6.17893784941173e-01 8.28786763039368e-01 2.04845206115689e-03 
6.22896973483207e-01 8.28279459091936e-01 2.08996421101001e-03 
6.27900162025241e-01 8.27755355622713e-01 2.13179062415700e-03 
6.32903350567275e-01 8.27214114310035e-01 2.17392651612604e-03 
6.37906539109309e-01 8.26655395149066e-01 2.21636696761830e-03 
6.42909727651342e-01 8.26078856547293e-01 2.25910692269586e-03 
6.47912916193376e-01 8.25484155422594e-01 2.30214118700666e-03 
6.52916104735410e-01 8.24870947303927e-01 2.34546442604276e-03 
6.57919293277444e-01 8.24238886434644e-01 2.38907116344050e-03 
6.62922481819478e-01 8.23587625878461e-01 2.43295577932389e-03 
6.67925670361511e-01 8.22916817628093e-01 2.47711250868388e-03 
6.72928858903545e-01 8.22226112716593e-01 2.52153543980819e-03 
6.77932047445579e-01 8.21515161331385e-01 2.56621851275958e-03 
6.82935235987613e-01 8.20783612931036e-01 2.61115551790351e-03 
6.87938424529646e-01 8.20031116364745e-01 2.65634009449024e-03 
6.92941613071680e-01 8.19257319994595e-01 2.70176572929255e-03 
6.97944801613714e-01 8.18461871820555e-01 2.74730859502368e-03 
7.02947990155748e-01 8.17644556814980e-01 2.79176194764437e-03 
7.07951178697782e-01 8.16806449862056e-01 2.83525205769597e-03 
7.12954367239815e-01 8.15947246348778e-01 2.87893250409631e-03 
7.17957555781849e-01 8.15066641935710e-01 2.92279689057380e-03 
7.22960744323883e-01 8.14164332669043e-01 2.96683868944457e-03 
7.27963932865917e-01 8.13240015094736e-01 3.01105124094721e-03 
7.32967121407951e-01 8.12293386374717e-01 3.05542775263963e-03 
7.37970309949984e-01 8.11324144405149e-01 3.09996129886045e-03 
7.42973498492018e-01 8.10331987936740e-01 3.14464482024698e-03 
7.47976687034052e-01 8.09316616697103e-01 3.18947112332318e-03 
7.52979875576086e-01 8.08277731515123e-01 3.23443288015434e-03 
7.57983064118120e-01 8.07215034447350e-01 3.27952262807046e-03 
7.62986252660153e-01 8.06128228906369e-01 3.32473276946365e-03 
7.67989441202187e-01 8.05017019791146e-01 3.37005557165497e-03 
7.72992629744221e-01 8.03881113619323e-01 3.41548316683949e-03 
7.77995818286255e-01 8.02720218661436e-01 3.46100755210952e-03 
7.82999006828288e-01 8.01534045077029e-01 3.50662058955590e-03 
7.88002195370322e-01 8.00322305052636e-01 3.55231400645334e-03 
7.93005383912356e-01 7.99084712941608e-01 3.59807939552619e-03 
7.98008572454390e-01 7.97820985405731e-01 3.64386568542638e-03 
8.03011760996424e-01 7.96530901350808e-01 3.68928890555653e-03 
8.08014949538457e-01 7.95214716860019e-01 3.73438768695209e-03 
8.13018138080491e-01 7.93872169691462e-01 3.77951997482148e-03 
8.18021326622525e-01 7.92503000407066e-01 3.82467705180535e-03 
8.23024515164559e-01 7.91106952512937e-01 3.86985007739930e-03 
8.28027703706593e-01 7.89683772601105e-01 3.91503008882691e-03 
8.33030892248626e-01 7.88233210492630e-01 3.96020800200658e-03 
8.38034080790660e-01 7.86755019382006e-01 4.00537461261360e-03 
8.43037269332694e-01 7.85248955982818e-01 4.05052059723447e-03 
8.48040457874728e-01 7.83714780674603e-01 4.09563651461625e-03 
8.53043646416762e-01 7.82152257650842e-01 4.14071280701670e-03 
8.58046834958795e-01 7.80561155068047e-01 4.18573980165263e-03 
8.63050023500829e-01 7.78941245195856e-01 4.23070771224751e-03 
8.68053212042863e-01 7.77292304568092e-01 4.27560664068421e-03 
8.73056400584897e-01 7.75614114134709e-01 4.32042657875689e-03 
8.78059589126931e-01 7.73906459414561e-01 4.36515741003067e-03 
8.83062777668964e-01 7.72169130648918e-01 4.40978891180776e-03 
8.88065966210998e-01 7.70401922955655e-01 4.45431075719859e-03 
8.93069154753032e-01 7.68604636484047e-01 4.49871251730215e-03 
8.98072343295066e-01 7.66777076570072e-01 4.54298366349661e-03 
9.03075531837100e-01 7.64919053892162e-01 4.58711356983883e-03 
9.08078720379133e-01 7.63030384627299e-01 4.63109151557406e-03 
9.13081908921167e-01 7.61110890607383e-01 4.67490668776006e-03 
9.18085097463201e-01 7.59160399475777e-01 4.71854818400452e-03 
9.23088286005235e-01 7.57178744843931e-01 4.76200501531284e-03 
9.28091474547268e-01 7.55165766448011e-01 4.80526610905286e-03 
9.33094663089302e-01 7.53121310305404e-01 4.84832031203161e-03 
9.38097851631336e-01 7.51045228871041e-01 4.89115639368958e-03 
9.43101040173370e-01 7.48937381193396e-01 4.93376304940969e-03 
9.48104228715404e-01 7.46797633070086e-01 4.97612890394000e-03 
9.53107417257437e-01 7.44625857202957e-01 5.01824251493441e-03 
9.58110605799471e-01 7.42421933352537e-01 5.06009237660821e-03 
9.63113794341505e-01 7.40185748491768e-01 5.10166692350984e-03 
9.68116982883539e-01 7.37917196958883e-01 5.14295453440759e-03 
9.73120171425573e-01 7.35616180609325e-01 5.18394353629147e-03 
9.78123359967606e-01 7.33282608966586e-01 5.22462220849057e-03 
9.83126548509640e-01 7.30916399371851e-01 5.26497878690345e-03 
9.88129737051674e-01 7.28517477132326e-01 5.30500146834348e-03 
9.93132925593708e-01 7.26085775668119e-01 5.34467841499813e-03 
9.98136114135742e-01 7.23621236657562e-01 5.38353483678259e-03 
1.00313930267778e+00 7.21124677556746e-01 5.41839928199548e-03 
1.00814249121981e+00 7.18602039199533e-01 5.44977657782730e-03 
1.01314567976184e+00 7.16053347730943e-01 5.48080743577846e-03 
1.01814886830388e+00 7.13478635236648e-01 5.51148382183183e-03 
1.02315205684591e+00 7.10877939804805e-01 5.54179771670429e-03 
1.02815524538794e+00 7.08251305586345e-01 5.57174111884414e-03 
1.03315843392998e+00 7.05598782853655e-01 5.60130604747063e-03 
1.03816162247201e+00 7.02920428057596e-01 5.63048454565086e-03 
1.04316481101405e+00 7.00216303882807e-01 5.65926868341687e-03 
1.04816799955608e+00 6.97486479301223e-01 5.68765056092067e-03 
1.05317118809811e+00 6.94731029623767e-01 5.71562231162554e-03 
1.05817437664015e+00 6.91950036550139e-01 5.74317610553189e-03 
1.06317756518218e+00 6.89143588216667e-01 5.77030415243861e-03 
1.06818075372421e+00 6.86311779242131e-01 5.79699870523416e-03 
1.07318394226625e+00 6.83454710771544e-01 5.82325206321945e-03 
1.07818713080828e+00 6.80572490517794e-01 5.84905657546200e-03 
1.08319031935032e+00 6.77665232801115e-01 5.87440464417564e-03 
1.08819350789235e+00 6.74733058586320e-01 5.89928872812568e-03 
1.09319669643438e+00 6.71776095517750e-01 5.92370134606035e-03 
1.09819988497642e+00 6.68794477951866e-01 5.94763508016582e-03 
1.10320307351845e+00 6.65788346987454e-01 5.97108257953997e-03 
1.10820626206049e+00 6.62757850493360e-01 5.99403656368624e-03 
1.11320945060252e+00 6.59703143133731e-01 6.01648982602475e-03 
1.11821263914455e+00 6.56624386390685e-01 6.03843523741858e-03 
1.12321582768659e+00 6.53521748584373e-01 6.05986574971331e-03 
1.12821901622862e+00 6.50395404890376e-01 6.08077439928795e-03 
1.13322220477065e+00 6.47245537354385e-01 6.10115431061618e-03 
1.13822539331269e+00 6.44072334904120e-01 6.12099869983289e-03 
1.14322858185472e+00 6.40875993358434e-01 6.14030087830645e-03 
1.14823177039676e+00 6.37656715433557e-01 6.15905425621421e-03 
1.15323495893879e+00 6.34414710746438e-01 6.17725234611768e-03 
1.15823814748082e+00 6.31150195815130e-01 6.19488876653695e-03 
1.16324133602286e+00 6.27863394056186e-01 6.21195724551898e-03 
1.16824452456489e+00 6.24554535779011e-01 6.22845162420269e-03 
1.17324771310692e+00 6.21223858177139e-01 6.24436586037228e-03 
1.17825090164896e+00 6.17871605316396e-01 6.25969403199838e-03 
1.18325409019099e+00 6.14498028119894e-01 6.27443034076930e-03 
1.18825727873303e+00 6.11103384349845e-01 6.28856911560251e-03 
1.19326046727506e+00 6.07687938586138e-01 6.30210481613807e-03 
1.19826365581709e+00 6.04251962201657e-01 6.31505252439753e-03 
1.20326684435913e+00 6.00795687111923e-01 6.32751963478439e-03 
1.20827003290116e+00 5.97319141944142e-01 6.33947760053770e-03 
1.21327322144319e+00 5.93822619187363e-01 6.35080689281986e-03 
1.21827640998523e+00 5.90306418141356e-01 6.36150254590001e-03 
1.22327959852726e+00 5.86770844875701e-01 6.37155974716825e-03 
1.22828278706930e+00 5.83216212185361e-01 6.38097384052569e-03 
1.23328597561133e+00 5.79642839542709e-01 6.38974032973418e-03 
1.23828916415336e+00 5.76051053045987e-01 6.39785488172323e-03 
1.24329235269540e+00 5.72441185364193e-01 6.40531332984944e-03 
1.24829554123743e+00 5.68813575678362e-01 6.41211167710759e-03 
1.25329872977947e+00 5.65168569619247e-01 6.41824609928867e-03 
1.25830191832150e+00 5.61506519201377e-01 6.42371294808452e-03 
1.26330510686353e+00 5.57827782753484e-01 6.42850875413319e-03 
1.26830829540557e+00 5.54132724845307e-01 6.43263023000413e-03 
1.27331148394760e+00 5.50421716210749e-01 6.43607427311979e-03 
1.27831467248963e+00 5.46695133667406e-01 6.43883796861095e-03 
1.28331786103167e+00 5.42953360032461e-01 6.44091859210199e-03 
1.28832104957370e+00 5.39196784034950e-01 6.44231361242463e-03 
1.29332423811574e+00 5.35425800224401e-01 6.44302069425568e-03 
1.29832742665777e+00 5.31640808875875e-01 6.44303770067657e-03 
1.30333061519980e+00 5.27842215891402e-01 6.44236269565521e-03 
1.30833380374184e+00 5.24030432697834e-01 6.44099394644019e-03 
1.31333699228387e+00 5.20205876141150e-01 6.43892992587067e-03 
1.31834018082590e+00 5.16368968377203e-01 6.43616931459867e-03 
1.32334336936794e+00 5.12520136758968e-01 6.43271100321756e-03 
1.32834655790997e+00 5.08659813720297e-01 6.42855409429538e-03 
1.33334974645201e+00 5.04788436656219e-01 6.42369790431444e-03 
1.33835293499404e+00 5.00906447799817e-01 6.41814196550962e-03 
1.34335612353607e+00 4.97014294095725e-01 6.41188602760404e-03 
1.34835931207811e+00 4.93112427070273e-01 6.40493005944156e-03 
1.35336250062014e+00 4.89201302698333e-01 6.39727425051109e-03 
1.35836568916217e+00 4.85281381266912e-01 6.38891901236310e-03 
1.36336887770421e+00 4.81353127235534e-01 6.37986497991363e-03 
1.36837206624624e+00 4.77417009093469e-01 6.37011301263434e-03 
1.37337525478828e+00 4.73473499213858e-01 6.35966419562685e-03 
1.37837844333031e+00 4.69523073704805e-01 6.34851984058010e-03 
1.38338163187234e+00 4.65566212257479e-01 6.33668148660643e-03 
1.38838482041438e+00 4.61603397991306e-01 6.32415090095569e-03 
1.39338800895641e+00 4.57635117296310e-01 6.31093007960587e-03 
1.39839119749844e+00 4.53661859672677e-01 6.29702124772818e-03 
1.40339438604048e+00 4.49684117567606e-01 6.28242686002469e-03 
1.40839757458251e+00 4.45702386209547e-01 6.26714960093722e-03 
1.41340076312455e+00 4.41717163439867e-01 6.25119238472537e-03 
1.41840395166658e+00 4.37728949542067e-01 6.23455835541268e-03 
1.42340714020861e+00 4.33738247068607e-01 6.21725088660107e-03 
1.42841032875065e+00 4.29745560665429e-01 6.19927358114874e-03 
1.43341351729268e+00 4.25751396894289e-01 6.18063027071332e-03 
1.43841670583472e+00 4.21756264052964e-01 6.16132501516019e-03 
1.44341989437675e+00 4.17760671993445e-01 6.14136210183093e-03 
1.44842308291878e+00 4.13765131938218e-01 6.12074604467520e-03 
1.45342627146082e+00 4.09770156294714e-01 6.09948158324339e-03 
1.45842946000285e+00 4.05776258468063e-01 6.07757368153944e-03 
1.46343264854488e+00 4.01783952672218e-01 6.05502752673459e-03 
1.46843583708692e+00 3.97793753739595e-01 6.03184852774040e-03 
1.47343902562895e+00 3.93806176929319e-01 6.00804231364198e-03 
1.47844221417099e+00 3.89821737734181e-01 5.98361473199013e-03 
1.48344540271302e+00 3.85840951686453e-01 5.95857184695388e-03 
1.48844859125505e+00 3.81864334162631e-01 5.93291993733228e-03 
1.49345177979709e+00 3.77892400187275e-01 5.90666549442609e-03 
1.49845496833912e+00 3.73925664236023e-01 5.87993545522905e-03 
1.50345815688115e+00 3.69964292778219e-01 5.85323602466903e-03 
1.50846134542319e+00 3.66007344554524e-01 5.82642886581921e-03 
1.51346453396522e+00 3.62055370061981e-01 5.79899538491111e-03 
1.51846772250726e+00 3.58108919112630e-01 5.77094309086680e-03 
1.52347091104929e+00 3.54168540606165e-01 5.74227972361881e-03 
1.52847409959132e+00 3.50234782301996e-01 5.71301325099444e-03 
1.53347728813336e+00 3.46308190590866e-01 5.68315186543472e-03 
1.53848047667539e+00 3.42389310266186e-01 5.65270398055096e-03 
1.54348366521742e+00 3.38478684295247e-01 5.62167822752019e-03 
1.54848685375946e+00 3.34576853590460e-01 5.59008345131977e-03 
1.55349004230149e+00 3.30684356780806e-01 5.55792870680447e-03 
