Energy(eV)           EEDF(eV^-(3/2))      Anisotropy(eV^-(3/2))
9.89965799719699e-04 1.16515247797799e+01 1.12394037380328e-02 
2.96989739915910e-03 1.14772405597016e+01 1.47073571063104e-02 
4.94982899859850e-03 1.12293748283579e+01 2.03010072927125e-02 
6.92976059803790e-03 1.09521562127742e+01 2.41179181277979e-02 
8.90969219747729e-03 1.06683738122213e+01 2.68543756671659e-02 
1.08896237969167e-02 1.03925523615164e+01 2.90179876237635e-02 
1.28695553963561e-02 1.01194322547100e+01 3.07789620310859e-02 
1.48494869957955e-02 9.85513853857840e+00 3.21613509377439e-02 
1.68294185952349e-02 9.59983300975876e+00 3.33481737296916e-02 
1.88093501946743e-02 9.35005239266094e+00 3.43332888833241e-02 
2.07892817941137e-02 9.10868995379536e+00 3.51329097635839e-02 
2.27692133935531e-02 8.87368860176864e+00 3.57926530215567e-02 
2.47491449929925e-02 8.64632977303967e+00 3.62681411145163e-02 
2.67290765924319e-02 8.42805375651760e+00 3.65708283164969e-02 
2.87090081918713e-02 8.22003415722582e+00 3.67145663260490e-02 
3.06889397913107e-02 8.02323167241062e+00 3.68456913651895e-02 
3.26688713907501e-02 7.83305806242130e+00 3.70155925336096e-02 
3.46488029901895e-02 7.64918415945484e+00 3.71050820237281e-02 
3.66287345896289e-02 7.47214340812294e+00 3.70978755799598e-02 
3.86086661890683e-02 7.30237403664223e+00 3.70013098696058e-02 
4.05885977885077e-02 7.14023393555319e+00 3.68967538296557e-02 
4.25685293879471e-02 6.98375331864792e+00 3.68164890242218e-02 
4.45484609873865e-02 6.83261851878528e+00 3.66916221728548e-02 
4.65283925868259e-02 6.68705196386963e+00 3.65066659078488e-02 
4.85083241862653e-02 6.54723378173164e+00 3.62656444151973e-02 
5.04882557857047e-02 6.41330752883097e+00 3.59857293587112e-02 
5.24681873851441e-02 6.28505722039004e+00 3.56758047381153e-02 
5.44481189845835e-02 6.16246258070474e+00 3.53242532616531e-02 
5.64280505840229e-02 6.04559308615978e+00 3.49274195604310e-02 
5.84079821834623e-02 5.93449748297939e+00 3.44860367504662e-02 
6.03879137829017e-02 5.82920638623907e+00 3.40001737272164e-02 
6.23678453823411e-02 5.72973442064761e+00 3.34692453512835e-02 
6.43477769817805e-02 5.63608192318462e+00 3.28920193671390e-02 
6.63277085812198e-02 5.54823622094890e+00 3.22666213844676e-02 
6.83076401806593e-02 5.46617249153380e+00 3.15905394957227e-02 
7.02875717800986e-02 5.38985420797524e+00 3.09920406698258e-02 
7.22675033795381e-02 5.31759877982146e+00 3.05639793915063e-02 
7.42474349789774e-02 5.24850455761126e+00 3.01824830547685e-02 
7.62273665784168e-02 5.18258075474859e+00 2.97715290724276e-02 
7.82072981778562e-02 5.11983001714841e+00 2.93309536629889e-02 
8.01872297772956e-02 5.06024886841777e+00 2.88603703699403e-02 
8.21671613767350e-02 5.00382806056331e+00 2.83591748800866e-02 
8.41470929761744e-02 4.95055283205496e+00 2.78265501375606e-02 
8.61270245756138e-02 4.90040307469184e+00 2.72614720301135e-02 
8.81069561750532e-02 4.85335341042711e+00 2.66627159618447e-02 
9.00868877744926e-02 4.80937317913143e+00 2.60288646674971e-02 
9.20668193739320e-02 4.76842633823200e+00 2.53583176676459e-02 
9.40467509733714e-02 4.73047127527956e+00 2.46493028113465e-02 
9.60266825728108e-02 4.69546053479647e+00 2.38998904028627e-02 
9.80066141722502e-02 4.66334046127458e+00 2.31080104624215e-02 
9.99865457716896e-02 4.63405076095165e+00 2.23985281317122e-02 
1.01966477371129e-01 4.60681086223527e+00 2.19243279276441e-02 
1.03946408970568e-01 4.58086593248230e+00 2.15684881653380e-02 
1.05926340570008e-01 4.55621181207176e+00 2.11921763685783e-02 
1.07906272169447e-01 4.53284221407324e+00 2.07950923540948e-02 
1.09886203768887e-01 4.51074873013586e+00 2.03768904658884e-02 
1.11866135368326e-01 4.48992082448530e+00 1.99371821945314e-02 
1.13846066967765e-01 4.47034581634634e+00 1.94755390927422e-02 
1.15825998567205e-01 4.45200885115177e+00 1.89914960247659e-02 
1.17805930166644e-01 4.43489286095088e+00 1.84845547901823e-02 
1.19785861766084e-01 4.41897851449233e+00 1.80127998282457e-02 
1.21765793365523e-01 4.40403037415721e+00 1.76757960168512e-02 
1.23745724964962e-01 4.38970870210838e+00 1.74211095602525e-02 
1.25725656564402e-01 4.37601222496833e+00 1.71530727497175e-02 
1.27705588163841e-01 4.36293878539550e+00 1.68715914983354e-02 
1.29685519763281e-01 4.35048534438115e+00 1.65765578603821e-02 
1.31665451362720e-01 4.33864798133202e+00 1.62678507836831e-02 
1.33645382962159e-01 4.32742189199949e+00 1.59453369251016e-02 
1.35625314561599e-01 4.31680138432303e+00 1.56088715339307e-02 
1.37605246161038e-01 4.30677987226350e+00 1.52582994084172e-02 
1.39585177760478e-01 4.29734986771001e+00 1.48934559311570e-02 
1.41565109359917e-01 4.28850297055320e+00 1.45141681897401e-02 
1.43545040959356e-01 4.28022985702748e+00 1.41202561898813e-02 
1.45524972558796e-01 4.27252026643541e+00 1.37115341693903e-02 
1.47504904158235e-01 4.26536298637839e+00 1.32878120229183e-02 
1.49484835757675e-01 4.25874583663016e+00 1.28752361196526e-02 
1.51464767357114e-01 4.25260148289661e+00 1.25619748078422e-02 
1.53444698956553e-01 4.24675142216418e+00 1.23281633574477e-02 
1.55424630555993e-01 4.24119305974272e+00 1.20852108944629e-02 
1.57404562155432e-01 4.23592342107877e+00 1.18330650194015e-02 
1.59384493754872e-01 4.23093914999386e+00 1.15716705864333e-02 
1.61364425354311e-01 4.22623650657801e+00 1.13009700325280e-02 
1.63344356953750e-01 4.22181136475816e+00 1.10209037291094e-02 
1.65324288553190e-01 4.21765920956239e+00 1.07314103580956e-02 
1.67304220152629e-01 4.21377513410283e+00 1.04324273147141e-02 
1.69284151752069e-01 4.21015383630154e+00 1.01368469988424e-02 
1.71264083351508e-01 4.20677123708344e+00 9.92822237634767e-03 
1.73244014950947e-01 4.20351019652407e+00 9.79937654510845e-03 
1.75223946550387e-01 4.20037034232231e+00 9.66542716787207e-03 
1.77203878149826e-01 4.19735118275254e+00 9.52636505826360e-03 
1.79183809749266e-01 4.19445210666354e+00 9.38218014726208e-03 
1.81163741348705e-01 4.19167238342691e+00 9.23286153260766e-03 
1.83143672948144e-01 4.18901116283634e+00 9.07839753111062e-03 
1.85123604547584e-01 4.18646747495952e+00 8.91877573405893e-03 
1.87103536147023e-01 4.18404022994413e+00 8.75398306580298e-03 
1.89083467746463e-01 4.18172821778008e+00 8.58400584573072e-03 
1.91063399345902e-01 4.17953010801972e+00 8.40882985388538e-03 
1.93043330945341e-01 4.17744444945831e+00 8.22844040041242e-03 
1.95023262544781e-01 4.17546966977687e+00 8.04282239922807e-03 
1.97003194144220e-01 4.17360407514997e+00 7.85196044628386e-03 
1.98983125743660e-01 4.17184584982079e+00 7.65583890295445e-03 
2.00963057343099e-01 4.17019305564639e+00 7.57123829403781e-03 
2.02942988942538e-01 4.16854134746860e+00 7.60581612053391e-03 
2.04922920541978e-01 4.16688952873976e+00 7.64129995032599e-03 
2.06902852141417e-01 4.16523782586386e+00 7.67606990196469e-03 
2.08882783740857e-01 4.16358646281113e+00 7.71012723919057e-03 
2.10862715340296e-01 4.16193566112324e+00 7.74347322503616e-03 
2.12842646939735e-01 4.16028563991863e+00 7.77610912141973e-03 
2.14822578539175e-01 4.15863661589783e+00 7.80803618875685e-03 
2.16802510138614e-01 4.15698880334895e+00 7.83925568555021e-03 
2.18782441738054e-01 4.15534241415319e+00 7.86976886800579e-03 
2.20762373337493e-01 4.15369765779044e+00 7.89957698964002e-03 
2.22742304936932e-01 4.15205474134492e+00 7.92868130091400e-03 
2.24722236536372e-01 4.15041386951094e+00 7.95708304886135e-03 
2.26702168135811e-01 4.14877524459865e+00 7.98478347671588e-03 
2.28682099735251e-01 4.14713906653989e+00 8.01178382353039e-03 
2.30662031334690e-01 4.14550553289411e+00 8.03808532385406e-03 
2.32641962934129e-01 4.14387483885424e+00 8.06368920738706e-03 
2.34621894533569e-01 4.14224717725278e+00 8.08859669861146e-03 
2.36601826133008e-01 4.14062273856772e+00 8.11280901648200e-03 
2.38581757732448e-01 4.13900171092868e+00 8.13632737408295e-03 
2.40561689331887e-01 4.13738428012301e+00 8.15915297829690e-03 
2.42541620931326e-01 4.13577062960190e+00 8.18128702949265e-03 
2.44521552530766e-01 4.13416094048655e+00 8.20273072121935e-03 
2.46501484130205e-01 4.13255539157440e+00 8.22348523991392e-03 
2.48481415729645e-01 4.13095415934531e+00 8.24355176456497e-03 
2.50461347329084e-01 4.12935741796781e+00 8.36086956013558e-03 
2.52441278928523e-01 4.12768941661072e+00 8.61118532656289e-03 
2.54421210527963e-01 4.12591946772134e+00 8.89844341090399e-03 
2.56401142127402e-01 4.12404401896731e+00 9.18843457144974e-03 
2.58381073726841e-01 4.12205948549747e+00 9.48110792699450e-03 
2.60361005326281e-01 4.11996225141179e+00 9.77641060694590e-03 
2.62340936925720e-01 4.11774867129029e+00 1.00742877173191e-02 
2.64320868525160e-01 4.11541507178201e+00 1.03746823079903e-02 
2.66300800124599e-01 4.11295775325453e+00 1.06775353411729e-02 
2.68280731724038e-01 4.11037299150493e+00 1.09827856612630e-02 
2.70260663323478e-01 4.10765703953277e+00 1.12903699660743e-02 
2.72240594922917e-01 4.10480612937556e+00 1.16002227795933e-02 
2.74220526522357e-01 4.10181647400734e+00 1.19122764262738e-02 
2.76200458121796e-01 4.09868426930073e+00 1.22264610069118e-02 
2.78180389721235e-01 4.09540569605273e+00 1.25427043762899e-02 
2.80160321320675e-01 4.09197692207463e+00 1.28609321226003e-02 
2.82140252920114e-01 4.08839410434617e+00 1.31810675487116e-02 
2.84120184519554e-01 4.08465339123393e+00 1.35030316554193e-02 
2.86100116118993e-01 4.08075092477411e+00 1.38267431267248e-02 
2.88080047718432e-01 4.07668284301939e+00 1.41521183172427e-02 
2.90059979317872e-01 4.07244528244985e+00 1.44790712418109e-02 
2.92039910917311e-01 4.06803438044749e+00 1.48075135673965e-02 
2.94019842516751e-01 4.06344627783399e+00 1.51373546074011e-02 
2.95999774116190e-01 4.05867712147110e+00 1.54685013184094e-02 
2.97979705715629e-01 4.05372306692318e+00 1.58008582995168e-02 
2.99959637315069e-01 4.04858028118084e+00 1.61540712400921e-02 
3.01939568914508e-01 4.04321909666532e+00 1.65488457476727e-02 
3.03919500513948e-01 4.03760593078294e+00 1.69652687427024e-02 
3.05899432113387e-01 4.03173469159284e+00 1.73826516964072e-02 
3.07879363712826e-01 4.02559932532467e+00 1.78008209931584e-02 
3.09859295312266e-01 4.01919382264611e+00 1.82195987120158e-02 
3.11839226911705e-01 4.01251222506254e+00 1.86388026778295e-02 
3.13819158511145e-01 4.00554863144399e+00 1.90582465206696e-02 
3.15799090110584e-01 3.99829720467374e+00 1.94777397437665e-02 
3.17779021710023e-01 3.99075217841281e+00 1.98970878001554e-02 
3.19758953309463e-01 3.98290786397375e+00 2.03160921781459e-02 
3.21738884908902e-01 3.97475865729711e+00 2.07345504957605e-02 
3.23718816508342e-01 3.96629904602287e+00 2.11522566043046e-02 
3.25698748107781e-01 3.95752361664928e+00 2.15690007011309e-02 
3.27678679707220e-01 3.94842706177059e+00 2.19845694517255e-02 
3.29658611306660e-01 3.93900418738488e+00 2.23987461211860e-02 
3.31638542906099e-01 3.92924992026272e+00 2.28113107151175e-02 
3.33618474505539e-01 3.91915931536684e+00 2.32220401300289e-02 
3.35598406104978e-01 3.90872756331256e+00 2.36307083132194e-02 
3.37578337704417e-01 3.89794999785828e+00 2.40370864321453e-02 
3.39558269303857e-01 3.88682210341491e+00 2.44409430532462e-02 
3.41538200903296e-01 3.87533952256252e+00 2.48420443301729e-02 
3.43518132502736e-01 3.86349806356235e+00 2.52401542013430e-02 
3.45498064102175e-01 3.85129370785162e+00 2.56350345967224e-02 
3.47477995701614e-01 3.83872261750833e+00 2.60264456536908e-02 
3.49457927301054e-01 3.82578114267299e+00 2.64201873120246e-02 
3.51437858900493e-01 3.81245329167423e+00 2.68363688543453e-02 
3.53417790499933e-01 3.79869204837312e+00 2.72678468104311e-02 
3.55397722099372e-01 3.78449310624423e+00 2.76940827549136e-02 
3.57377653698811e-01 3.76985244664061e+00 2.81147597934521e-02 
3.59357585298251e-01 3.75476634929298e+00 2.85295605113420e-02 
3.61337516897690e-01 3.73923140261607e+00 2.89381673899142e-02 
3.63317448497130e-01 3.72324451379585e+00 2.93402632343668e-02 
3.65297380096569e-01 3.70680291863123e+00 2.97355316123366e-02 
3.67277311696008e-01 3.68990419110374e+00 3.01236573024620e-02 
3.69257243295448e-01 3.67254625264823e+00 3.05043267521254e-02 
3.71237174894887e-01 3.65472738109796e+00 3.08772285435177e-02 
3.73217106494327e-01 3.63644621927713e+00 3.12420538671143e-02 
3.75197038093766e-01 3.61770178321433e+00 3.15984970016017e-02 
3.77176969693205e-01 3.59849346995037e+00 3.19462557992602e-02 
3.79156901292645e-01 3.57882106491429e+00 3.22850321757481e-02 
3.81136832892084e-01 3.55868474884191e+00 3.26145326031820e-02 
3.83116764491524e-01 3.53808510421143e+00 3.29344686054056e-02 
3.85096696090963e-01 3.51702312117156e+00 3.32445572542606e-02 
3.87076627690402e-01 3.49550020293800e+00 3.35445216656636e-02 
3.89056559289842e-01 3.47351817063505e+00 3.38340914942556e-02 
3.91036490889281e-01 3.45107926755998e+00 3.41130034253662e-02 
3.93016422488721e-01 3.42818616284868e+00 3.43810016630154e-02 
3.94996354088160e-01 3.40484195452221e+00 3.46378384126423e-02 
3.96976285687599e-01 3.38105017189504e+00 3.48832743572659e-02 
3.98956217287039e-01 3.35681477732703e+00 3.51170791257345e-02 
4.00936148886478e-01 3.33214016730244e+00 3.53308144879292e-02 
4.02916080485918e-01 3.30705719620868e+00 3.55245261211283e-02 
4.04896012085357e-01 3.28157180067840e+00 3.57064285880956e-02 
4.06875943684796e-01 3.25568957391375e+00 3.58765844865259e-02 
4.08855875284236e-01 3.22941649397796e+00 3.60348345513321e-02 
4.10835806883675e-01 3.20275892127262e+00 3.61810298368805e-02 
4.12815738483115e-01 3.17572359538643e+00 3.63150320371149e-02 
4.14795670082554e-01 3.14831763131183e+00 3.64367137902460e-02 
4.16775601681993e-01 3.12054851502739e+00 3.65459589670448e-02 
4.18755533281433e-01 3.09242409844537e+00 3.66426629418237e-02 
4.20735464880872e-01 3.06395259372577e+00 3.67267328452028e-02 
4.22715396480312e-01 3.03514256695928e+00 3.67980877978044e-02 
4.24695328079751e-01 3.00600293122373e+00 3.68566591240587e-02 
4.26675259679190e-01 2.97654293902004e+00 3.69023905453651e-02 
4.28655191278630e-01 2.94677217409517e+00 3.69352383518952e-02 
4.30635122878069e-01 2.91670054266178e+00 3.69551715523695e-02 
4.32615054477509e-01 2.88633826402529e+00 3.69621720012039e-02 
4.34594986076948e-01 2.85569586063133e+00 3.69562345024838e-02 
4.36574917676387e-01 2.82478414754774e+00 3.69373668902902e-02 
4.38554849275827e-01 2.79361422139722e+00 3.69055900849505e-02 
4.40534780875266e-01 2.76219744875805e+00 3.68609381248689e-02 
4.42514712474706e-01 2.73054545405213e+00 3.68034581736529e-02 
4.44494644074145e-01 2.69867010694090e+00 3.67332105023285e-02 
4.46474575673584e-01 2.66658350925127e+00 3.66502684465096e-02 
4.48454507273024e-01 2.63429798145501e+00 3.65547183384500e-02 
4.50434438872463e-01 2.60182604872658e+00 3.64466594139934e-02 
4.52414370471903e-01 2.56918042660544e+00 3.63262036945047e-02 
4.54394302071342e-01 2.53637400629029e+00 3.61934758439467e-02 
4.56374233670781e-01 2.50341983959365e+00 3.60486130013313e-02 
4.58354165270221e-01 2.47033112358655e+00 3.58917645888601e-02 
4.60334096869660e-01 2.43712118496364e+00 3.57230920961385e-02 
4.62314028469100e-01 2.40380346416029e+00 3.55427688409202e-02 
4.64293960068539e-01 2.37039149925394e+00 3.53509797069109e-02 
4.66273891667978e-01 2.33689890968245e+00 3.51479208592305e-02 
4.68253823267418e-01 2.30333937981314e+00 3.49337994382011e-02 
4.70233754866857e-01 2.26972664239644e+00 3.47088332321919e-02 
4.72213686466297e-01 2.23607446193848e+00 3.44732503303246e-02 
4.74193618065736e-01 2.20239661802742e+00 3.42272887558933e-02 
4.76173549665175e-01 2.16870688864820e+00 3.39711960814074e-02 
4.78153481264615e-01 2.13501903352072e+00 3.37052290262361e-02 
4.80133412864054e-01 2.10134677749621e+00 3.34296530378708e-02 
4.82113344463494e-01 2.06770379404652e+00 3.31447418578734e-02 
4.84093276062933e-01 2.03410368888071e+00 3.28507770736221e-02 
4.86073207662372e-01 2.00055998372296e+00 3.25480476570002e-02 
4.88053139261812e-01 1.96708610028542e+00 3.22368494912159e-02 
4.90033070861251e-01 1.93369534446884e+00 3.19174848869706e-02 
4.92013002460691e-01 1.90040089082335e+00 3.15902620892107e-02 
4.93992934060130e-01 1.86721576730078e+00 3.12554947757312e-02 
4.95972865659569e-01 1.83415284032924e+00 3.09135015489044e-02 
4.97952797259009e-01 1.80122480023935e+00 3.05646054218288e-02 
4.99932728858448e-01 1.76844414707086e+00 3.02084622560732e-02 
5.01912660457888e-01 1.73582758833271e+00 2.98447282767448e-02 
5.03892592057327e-01 1.70339194501304e+00 2.94745755369523e-02 
5.05872523656766e-01 1.67114857414593e+00 2.90991805900047e-02 
5.07852455256206e-01 1.63910859068849e+00 2.87188701047729e-02 
5.09832386855645e-01 1.60728285659059e+00 2.83339717042484e-02 
5.11812318455085e-01 1.57568197036548e+00 2.79448134823052e-02 
5.13792250054524e-01 1.54431625717821e+00 2.75517235252433e-02 
5.15772181653963e-01 1.51319575946675e+00 2.71550294391910e-02 
5.17752113253403e-01 1.48233022810972e+00 2.67550578844152e-02 
5.19732044852842e-01 1.45172911415273e+00 2.63521341175549e-02 
5.21711976452282e-01 1.42140156110405e+00 2.59465815427586e-02 
5.23691908051721e-01 1.39135639780863e+00 2.55387212726612e-02 
5.25671839651160e-01 1.36160213190806e+00 2.51288717001007e-02 
5.27651771250600e-01 1.33214694389226e+00 2.47173480814272e-02 
5.29631702850039e-01 1.30299868174742e+00 2.43044621322123e-02 
5.31611634449479e-01 1.27416485620297e+00 2.38905216361173e-02 
5.33591566048918e-01 1.24565263657882e+00 2.34758300676281e-02 
5.35571497648357e-01 1.21746884723266e+00 2.30606862293098e-02 
5.37551429247797e-01 1.18961996460563e+00 2.26453839041893e-02 
5.39531360847236e-01 1.16211211486301e+00 2.22302115238132e-02 
5.41511292446676e-01 1.13495107212539e+00 2.18154518524701e-02 
5.43491224046115e-01 1.10814225728432e+00 2.14013816880216e-02 
5.45471155645554e-01 1.08169073739487e+00 2.09882715797205e-02 
5.47451087244994e-01 1.05560122563651e+00 2.05763855633402e-02 
5.49431018844433e-01 1.02987808183230e+00 2.01659809138864e-02 
5.51410950443873e-01 1.00452531351529e+00 1.97573079161062e-02 
5.53390882043312e-01 9.79546577529598e-01 1.93506096529500e-02 
5.55370813642751e-01 9.54945182152987e-01 1.89461218120880e-02 
5.57350745242191e-01 9.30724089726375e-01 1.85440725105364e-02 
5.59330676841630e-01 9.06885919774874e-01 1.81446821373859e-02 
5.61310608441070e-01 8.83432952604085e-01 1.77481632145797e-02 
5.63290540040509e-01 8.60367133354528e-01 1.73547202756366e-02 
5.65270471639948e-01 8.37690076496302e-01 1.69645497621673e-02 
5.67250403239388e-01 8.15403070745415e-01 1.65778399379857e-02 
5.69230334838827e-01 7.93507084382596e-01 1.61947708205704e-02 
5.71210266438266e-01 7.72002770954865e-01 1.58155141295921e-02 
5.73190198037706e-01 7.50890475339638e-01 1.54402332521787e-02 
5.75170129637145e-01 7.30170240150792e-01 1.50690832245556e-02 
5.77150061236585e-01 7.09841812465727e-01 1.47022107296603e-02 
5.79129992836024e-01 6.89904650852250e-01 1.43397541102970e-02 
5.81109924435463e-01 6.70357932673892e-01 1.39818433973653e-02 
5.83089856034903e-01 6.51200561652143e-01 1.36286003526724e-02 
5.85069787634342e-01 6.32431175664052e-01 1.32801385258060e-02 
5.87049719233782e-01 6.14048154753636e-01 1.29365633245274e-02 
5.89029650833221e-01 5.96049629335594e-01 1.25979720981175e-02 
5.91009582432660e-01 5.78433488570012e-01 1.22644542330964e-02 
5.92989514032100e-01 5.61197388886855e-01 1.19360912607153e-02 
5.94969445631539e-01 5.44338762639356e-01 1.16129569756101e-02 
5.96949377230979e-01 5.27854826865680e-01 1.12951175649938e-02 
5.98929308830418e-01 5.11742592138582e-01 1.09826317477534e-02 
6.00909240429857e-01 4.95998871483209e-01 1.06755509228175e-02 
6.02889172029297e-01 4.80620289343598e-01 1.03739193261487e-02 
6.04869103628736e-01 4.65603290578944e-01 1.00777741957194e-02 
6.06849035228176e-01 4.50944149471200e-01 9.78714594382840e-03 
6.08828966827615e-01 4.36638978726156e-01 9.50205833611520e-03 
6.10808898427054e-01 4.22683738450728e-01 9.22252867663861e-03 
6.12788830026494e-01 4.09074245089789e-01 8.94856799838807e-03 
6.14768761625933e-01 3.95806180306560e-01 8.68018125860672e-03 
