Energy(eV)           EEDF(eV^-(3/2))      Anisotropy(eV^-(3/2))
2.03871601099717e-02 6.08703726204724e-02 4.02437980174007e-04 
6.11614803299151e-02 6.08535213716048e-02 9.81586156976310e-04 
1.01935800549859e-01 6.08449180379652e-02 1.09790431764495e-03 
1.42710120769802e-01 6.08408621316956e-02 1.23010121242388e-03 
1.83484440989745e-01 6.08387149359278e-02 1.36226015131662e-03 
2.24258761209689e-01 6.08374046474537e-02 1.50178050107654e-03 
2.65033081429632e-01 6.08361187848436e-02 1.63739252729308e-03 
3.05807401649576e-01 6.08341043566410e-02 1.75501797995433e-03 
3.46581721869519e-01 6.08309854446338e-02 1.86775510883629e-03 
3.87356042089463e-01 6.08264723162553e-02 1.97738496156482e-03 
4.28130362309406e-01 6.08203368160355e-02 2.08375994053170e-03 
4.68904682529349e-01 6.08125050942218e-02 2.18761096021173e-03 
5.09679002749293e-01 6.08028541511658e-02 2.28838274477020e-03 
5.50453322969236e-01 6.07912979089578e-02 2.38623842137481e-03 
5.91227643189180e-01 6.07777386624704e-02 2.48124824536113e-03 
6.32001963409123e-01 6.07620730111492e-02 2.57342582050331e-03 
6.72776283629066e-01 6.07442030163023e-02 2.66273515434559e-03 
7.13550603849010e-01 6.07240364460475e-02 2.74914723316953e-03 
7.54324924068953e-01 6.07015002616050e-02 2.83274047093188e-03 
7.95099244288897e-01 6.06765158935631e-02 2.91357673102276e-03 
8.35873564508840e-01 6.06490067189217e-02 2.99170668110416e-03 
8.76647884728784e-01 6.06189007115915e-02 3.06720403048364e-03 
9.17422204948727e-01 6.05861298194404e-02 3.14017393994944e-03 
9.58196525168670e-01 6.05506295372523e-02 3.21071293128721e-03 
9.98970845388614e-01 6.05123390099579e-02 3.27878173086126e-03 
1.03974516560856e+00 6.04713895935019e-02 3.34443509806049e-03 
1.08051948582850e+00 6.04279491375358e-02 3.40770972118266e-03 
1.12129380604844e+00 6.03819861134386e-02 3.46852720641215e-03 
1.16206812626839e+00 6.03334720477548e-02 3.52698034538420e-03 
1.20284244648833e+00 6.02823801842692e-02 3.58336369991532e-03 
1.24361676670827e+00 6.02285343035628e-02 3.63792168856112e-03 
1.28439108692822e+00 6.01717876670662e-02 3.69070495501151e-03 
1.32516540714816e+00 6.01121384484316e-02 3.74167413103096e-03 
1.36593972736810e+00 6.00497956686716e-02 3.79093877425739e-03 
1.40671404758805e+00 5.99847387520270e-02 3.83849029728133e-03 
1.44748836780799e+00 5.99169487380358e-02 3.88440191775523e-03 
1.48826268802793e+00 5.98464075979847e-02 3.92882467411192e-03 
1.52903700824788e+00 5.97732151882375e-02 3.97192681517585e-03 
1.56981132846782e+00 5.96978039110060e-02 4.01385056377502e-03 
1.61058564868777e+00 5.96201680186488e-02 4.05444626799520e-03 
1.65135996890771e+00 5.95403047746906e-02 4.09363572431609e-03 
1.69213428912765e+00 5.94582143796425e-02 4.13135349178582e-03 
1.73290860934760e+00 5.93738997551662e-02 4.16755207321848e-03 
1.77368292956754e+00 5.92873662117888e-02 4.20219604080845e-03 
1.81445724978748e+00 5.91986214138348e-02 4.23525211466191e-03 
1.85523157000743e+00 5.91076754248607e-02 4.26669941095349e-03 
1.89600589022737e+00 5.90145402227523e-02 4.29656757891973e-03 
1.93678021044731e+00 5.89189186628583e-02 4.32484300649975e-03 
1.97755453066726e+00 5.88203574710740e-02 4.35145552914240e-03 
2.01832885088720e+00 5.87188654818594e-02 4.37642021152347e-03 
2.05910317110714e+00 5.86144541896927e-02 4.39973537851426e-03 
2.09987749132709e+00 5.85071378216928e-02 4.42137301667741e-03 
2.14065181154703e+00 5.83973281056851e-02 4.44135604304799e-03 
2.18142613176697e+00 5.82854489564878e-02 4.45971816090579e-03 
2.22220045198692e+00 5.81715045076566e-02 4.47647321865598e-03 
2.26297477220686e+00 5.80550121843463e-02 4.49158805776848e-03 
2.30374909242680e+00 5.79359997612000e-02 4.50509735271076e-03 
2.34452341264675e+00 5.78144962998940e-02 4.51704132864847e-03 
2.38529773286669e+00 5.76905319897485e-02 4.52742109496990e-03 
2.42607205308663e+00 5.75641403164519e-02 4.53618236313121e-03 
2.46684637330658e+00 5.74353590053867e-02 4.54325004654511e-03 
2.50762069352652e+00 5.73042304755203e-02 4.54856074484835e-03 
2.54839501374646e+00 5.71704279550472e-02 4.55209230107798e-03 
2.58916933396641e+00 5.70338291694101e-02 4.55389480286386e-03 
2.62994365418635e+00 5.68944826907710e-02 4.55404682178002e-03 
2.67071797440629e+00 5.67524376198746e-02 4.55262636196161e-03 
2.71149229462624e+00 5.66077435276648e-02 4.54970933210536e-03 
2.75226661484618e+00 5.64604502756305e-02 4.54537186010028e-03 
2.79304093506612e+00 5.63106078186203e-02 4.53968551410849e-03 
2.83381525528607e+00 5.61583555921456e-02 4.53271232564355e-03 
2.87458957550601e+00 5.60039252462046e-02 4.52451509686786e-03 
2.91536389572595e+00 5.58473660030424e-02 4.51516206830921e-03 
2.95613821594590e+00 5.56887269374258e-02 4.50471376099110e-03 
2.99691253616584e+00 5.55280567075923e-02 4.49323101942228e-03 
3.03768685638578e+00 5.53655173471299e-02 4.48076576318461e-03 
3.07846117660573e+00 5.52013101096235e-02 4.46736966939206e-03 
3.11923549682567e+00 5.50354807452874e-02 4.45309910339461e-03 
3.16000981704562e+00 5.48680745290334e-02 4.43799902740959e-03 
3.20078413726556e+00 5.46991363093275e-02 4.42210568882674e-03 
3.24155845748550e+00 5.45287109563511e-02 4.40545040899489e-03 
3.28233277770545e+00 5.43568431580957e-02 4.38807204056023e-03 
3.32310709792539e+00 5.41835769122459e-02 4.37001085978743e-03 
3.36388141814533e+00 5.40089557725259e-02 4.35130256350308e-03 
3.40465573836528e+00 5.38330228174084e-02 4.33198047165000e-03 
3.44543005858522e+00 5.36558207387830e-02 4.31207444200021e-03 
3.48620437880516e+00 5.34773919115225e-02 4.29159930105939e-03 
3.52697869902511e+00 5.32977794638770e-02 4.27056182467730e-03 
3.56775301924505e+00 5.31170268297757e-02 4.24899228991719e-03 
3.60852733946499e+00 5.29351761650732e-02 4.22693636869420e-03 
3.64930165968494e+00 5.27523579577177e-02 4.20443223583353e-03 
3.69007597990488e+00 5.25686475002553e-02 4.18152592548633e-03 
3.73085030012482e+00 5.23840819185410e-02 4.15825998868200e-03 
3.77162462034477e+00 5.21986971018952e-02 4.13467256202155e-03 
3.81239894056471e+00 5.20125277152534e-02 4.11079935097776e-03 
3.85317326078465e+00 5.18256072710651e-02 4.08667311185452e-03 
3.89394758100460e+00 5.16379681998079e-02 4.06232423929496e-03 
3.93472190122454e+00 5.14496418807164e-02 4.03778172477424e-03 
3.97549622144448e+00 5.12606586333045e-02 4.01307386806642e-03 
4.01627054166443e+00 5.10710476872564e-02 3.98823151462301e-03 
4.05704486188437e+00 5.08806442240976e-02 3.96329251188279e-03 
4.09781918210431e+00 5.06894563119777e-02 3.93826479241819e-03 
4.13859350232426e+00 5.04975129004269e-02 3.91316782441538e-03 
4.17936782254420e+00 5.03048420448812e-02 3.88802037886006e-03 
4.22014214276414e+00 5.01114710395078e-02 3.86283862698723e-03 
4.26091646298409e+00 4.99174264698134e-02 3.83763879236307e-03 
4.30169078320403e+00 4.97227340898607e-02 3.81243769660342e-03 
4.34246510342397e+00 4.95274188187886e-02 3.78725102172816e-03 
4.38323942364392e+00 4.93315047945313e-02 3.76209363957934e-03 
4.42401374386386e+00 4.91350153416924e-02 3.73698025847238e-03 
4.46478806408380e+00 4.89379729612307e-02 3.71192374726446e-03 
4.50556238430375e+00 4.87403994773226e-02 3.68692948081103e-03 
4.54633670452369e+00 4.85424847341429e-02 3.66199428754544e-03 
4.58711102474363e+00 4.83443426813843e-02 3.63713931726065e-03 
4.62788534496358e+00 4.81459895217561e-02 3.61238520728718e-03 
4.66865966518352e+00 4.79474407014982e-02 3.58774304113960e-03 
4.70943398540347e+00 4.77487109359557e-02 3.56322305118320e-03 
4.75020830562341e+00 4.75498142408740e-02 3.53883455232787e-03 
4.79098262584335e+00 4.73507639690871e-02 3.51458605992671e-03 
4.83175694606330e+00 4.71515728323975e-02 3.49048548285771e-03 
4.87253126628324e+00 4.69522529196569e-02 3.46654012634394e-03 
4.91330558650318e+00 4.67528157209277e-02 3.44275666944728e-03 
4.95407990672313e+00 4.65532721507673e-02 3.41914102368524e-03 
4.99485422694307e+00 4.63536325915873e-02 3.39570185574099e-03 
5.03562854716301e+00 4.61538155765799e-02 3.37245535271677e-03 
5.07640286738296e+00 4.59536796974926e-02 3.34940605669985e-03 
5.11717718760290e+00 4.57532370760430e-02 3.32654343349497e-03 
5.15795150782284e+00 4.55524993092973e-02 3.30387128660654e-03 
5.19872582804279e+00 4.53514774948444e-02 3.28139259507468e-03 
5.23950014826273e+00 4.51501822914461e-02 3.25910966001192e-03 
5.28027446848267e+00 4.49486239302332e-02 3.23702485078369e-03 
5.32104878870262e+00 4.47468121857722e-02 3.21514043308776e-03 
5.36182310892256e+00 4.45447564085146e-02 3.19345822505201e-03 
5.40259742914250e+00 4.43424655399278e-02 3.17197981018874e-03 
5.44337174936245e+00 4.41399481200114e-02 3.15070651627796e-03 
5.48414606958239e+00 4.39372123063207e-02 3.12963928556005e-03 
5.52492038980233e+00 4.37342658995918e-02 3.10877870039580e-03 
5.56569471002228e+00 4.35311163613463e-02 3.08812512879998e-03 
5.60646903024222e+00 4.33277708221642e-02 3.06767877954612e-03 
5.64724335046216e+00 4.31242360930554e-02 3.04743973757438e-03 
5.68801767068211e+00 4.29205186697982e-02 3.02740795660250e-03 
5.72879199090205e+00 4.27166247459272e-02 3.00758316466688e-03 
5.76956631112199e+00 4.25125602305430e-02 2.98796486466780e-03 
5.81034063134194e+00 4.23083307623563e-02 2.96855242163935e-03 
5.85111495156188e+00 4.21039417166149e-02 2.94934510066666e-03 
5.89188927178182e+00 4.18993982145812e-02 2.93034202884620e-03 
5.93266359200177e+00 4.16947051362730e-02 2.91154219232301e-03 
5.97343791222171e+00 4.14898671310502e-02 2.89294443729141e-03 
6.01421223244165e+00 4.12848886309197e-02 2.87455314441866e-03 
6.05498655266160e+00 4.10796856829865e-02 2.85637186565653e-03 
6.09576087288154e+00 4.08742477514880e-02 2.83839033884845e-03 
6.13653519310148e+00 4.06685799204606e-02 2.82060536846297e-03 
6.17730951332143e+00 4.04626870692330e-02 2.80301533466647e-03 
6.21808383354137e+00 4.02565738863261e-02 2.78561849684038e-03 
6.25885815376131e+00 4.00502448803986e-02 2.76841307710171e-03 
6.29963247398126e+00 3.98437043823400e-02 2.75139730092371e-03 
6.34040679420120e+00 3.96369565503144e-02 2.73456935498625e-03 
6.38118111442115e+00 3.94300053782126e-02 2.71792737372152e-03 
6.42195543464109e+00 3.92228547029540e-02 2.70146945146217e-03 
6.46272975486103e+00 3.90155082113550e-02 2.68519365757375e-03 
6.50350407508098e+00 3.88079694453091e-02 2.66909804653347e-03 
6.54427839530092e+00 3.86002418072209e-02 2.65318063654486e-03 
6.58505271552086e+00 3.83923285686164e-02 2.63743939734272e-03 
6.62582703574081e+00 3.81842328776956e-02 2.62187226754974e-03 
6.66660135596075e+00 3.79759577654467e-02 2.60647716709106e-03 
6.70737567618069e+00 3.77675061513813e-02 2.59125199959857e-03 
6.74814999640064e+00 3.75588808493616e-02 2.57619465325966e-03 
6.78892431662058e+00 3.73500845732859e-02 2.56130300541965e-03 
6.82969863684052e+00 3.71411199422485e-02 2.54657493106108e-03 
6.87047295706047e+00 3.69319894848905e-02 2.53200830653977e-03 
6.91124727728041e+00 3.67226956439556e-02 2.51760100794852e-03 
6.95202159750035e+00 3.65132407809059e-02 2.50335091197769e-03 
6.99279591772030e+00 3.63036271803341e-02 2.48927072279217e-03 
7.03357023794024e+00 3.60936815907732e-02 2.47539510359133e-03 
7.07434455816018e+00 3.58830427770808e-02 2.46171270276023e-03 
7.11511887838013e+00 3.56717185973858e-02 2.44817836536313e-03 
7.15589319860007e+00 3.54597167576028e-02 2.43478997495294e-03 
7.19666751882001e+00 3.52470448167927e-02 2.42154542185611e-03 
7.23744183903996e+00 3.50337101933458e-02 2.40844260728308e-03 
7.27821615925990e+00 3.48197201695623e-02 2.39547945686847e-03 
7.31899047947984e+00 3.46050818953308e-02 2.38265391878928e-03 
7.35976479969979e+00 3.43898023928642e-02 2.36996395805655e-03 
7.40053911991973e+00 3.41738885612480e-02 2.35740755781987e-03 
7.44131344013967e+00 3.39573471808095e-02 2.34498272031343e-03 
7.48208776035962e+00 3.37401849173551e-02 2.33268747025886e-03 
7.52286208057956e+00 3.35224083257616e-02 2.32051985482412e-03 
7.56363640079950e+00 3.33040238540517e-02 2.30847793912644e-03 
7.60441072101945e+00 3.30850378476690e-02 2.29655980718031e-03 
7.64518504123939e+00 3.28654565532367e-02 2.28476356455145e-03 
7.68595936145933e+00 3.26452861221804e-02 2.27308733874929e-03 
7.72673368167928e+00 3.24245326142484e-02 2.26152927955834e-03 
7.76750800189922e+00 3.22032020009042e-02 2.25008755905708e-03 
7.80828232211917e+00 3.19813001686763e-02 2.23876037202435e-03 
7.84905664233911e+00 3.17588329223016e-02 2.22754593649253e-03 
7.88983096255905e+00 3.15358059877942e-02 2.21644249370324e-03 
7.93060528277900e+00 3.13122250154230e-02 2.20544830777566e-03 
7.97137960299894e+00 3.10880955826728e-02 2.19456166589743e-03 
8.01215392321888e+00 3.08634231970113e-02 2.18375244050423e-03 
8.05292824343883e+00 3.06385000676811e-02 2.17300561787270e-03 
8.09370256365877e+00 3.04134010445834e-02 2.16235342148531e-03 
8.13447688387871e+00 3.01881280478459e-02 2.15180319287985e-03 
8.17525120409866e+00 2.99626829807479e-02 2.14135336909716e-03 
8.21602552431860e+00 2.97370677310694e-02 2.13100240978814e-03 
8.25679984453854e+00 2.95112841723417e-02 2.12074879749359e-03 
8.29757416475849e+00 2.92853341650041e-02 2.11059103775646e-03 
8.33834848497843e+00 2.90592195574948e-02 2.10052765871118e-03 
8.37912280519837e+00 2.88329421873601e-02 2.09055721048072e-03 
8.41989712541832e+00 2.86065038823425e-02 2.08067826482617e-03 
8.46067144563826e+00 2.83799064614361e-02 2.07088941509147e-03 
8.50144576585820e+00 2.81531517358588e-02 2.06118927610055e-03 
8.54222008607815e+00 2.79262415100033e-02 2.05157648369760e-03 
8.58299440629809e+00 2.76991775823835e-02 2.04204969436344e-03 
8.62376872651803e+00 2.74719617465469e-02 2.03260758508347e-03 
8.66454304673798e+00 2.72445957919287e-02 2.02324885316878e-03 
8.70531736695792e+00 2.70170815046830e-02 2.01397221597588e-03 
8.74609168717786e+00 2.67894206684803e-02 2.00477641062757e-03 
8.78686600739781e+00 2.65616150652831e-02 1.99566019374861e-03 
8.82764032761775e+00 2.63336664760879e-02 1.98662234119065e-03 
8.86841464783769e+00 2.61055766816481e-02 1.97766164772282e-03 
8.90918896805764e+00 2.58773474631736e-02 1.96877692675087e-03 
8.94996328827758e+00 2.56489806030077e-02 1.95996701005508e-03 
8.99073760849752e+00 2.54204778852767e-02 1.95123074751062e-03 
9.03151192871747e+00 2.51918410965247e-02 1.94256700678526e-03 
9.07228624893741e+00 2.49630720263270e-02 1.93397467303963e-03 
9.11306056915735e+00 2.47341724678904e-02 1.92545264863053e-03 
9.15383488937730e+00 2.45051442186342e-02 1.91699985282258e-03 
9.19460920959724e+00 2.42759890807577e-02 1.90861522149637e-03 
9.23538352981718e+00 2.40467088617914e-02 1.90029770690055e-03 
9.27615785003713e+00 2.38173053751260e-02 1.89204627743042e-03 
9.31693217025707e+00 2.35877804405204e-02 1.88385991736325e-03 
9.35770649047702e+00 2.33581358846003e-02 1.87573762654399e-03 
9.39848081069696e+00 2.31283735413492e-02 1.86767842005811e-03 
9.43925513091690e+00 2.28984952525950e-02 1.85968132797219e-03 
9.48002945113685e+00 2.26685028684756e-02 1.85174539512266e-03 
9.52080377135679e+00 2.24383982478892e-02 1.84386968085497e-03 
9.56157809157673e+00 2.22081832589381e-02 1.83605325872437e-03 
9.60235241179667e+00 2.19778597793676e-02 1.82829521624765e-03 
9.64312673201662e+00 2.17474296969890e-02 1.82059465468130e-03 
9.68390105223656e+00 2.15168949100923e-02 1.81295068877864e-03 
9.72467537245651e+00 2.12862573278488e-02 1.80536244654835e-03 
9.76544969267645e+00 2.10555188707068e-02 1.79782906902369e-03 
9.80622401289639e+00 2.08246814707747e-02 1.79034971003596e-03 
9.84699833311634e+00 2.05937470721980e-02 1.78292353597414e-03 
9.88777265333628e+00 2.03627176315293e-02 1.77554972555809e-03 
9.92854697355622e+00 2.01315951180900e-02 1.76822746962783e-03 
9.96932129377617e+00 1.99003815143226e-02 1.76095597093040e-03 
1.00100956139961e+01 1.96690788161366e-02 1.75364267264301e-03 
1.00508699342161e+01 1.94386054599637e-02 1.74624506872228e-03 
1.00916442544360e+01 1.92092635207841e-02 1.73886702520427e-03 
1.01324185746559e+01 1.89810443547085e-02 1.73154428446103e-03 
1.01731928948759e+01 1.87539394204337e-02 1.72427618498916e-03 
1.02139672150958e+01 1.85279402776152e-02 1.71706207575764e-03 
1.02547415353158e+01 1.83030385852708e-02 1.70990131601933e-03 
1.02955158555357e+01 1.80792261002119e-02 1.70279327512382e-03 
1.03362901757557e+01 1.78564946755051e-02 1.69573733232760e-03 
1.03770644959756e+01 1.76348362589628e-02 1.68873287660301e-03 
1.04178388161955e+01 1.74142428916631e-02 1.68177930645353e-03 
1.04586131364155e+01 1.71947067064981e-02 1.67487602974203e-03 
1.04993874566354e+01 1.69762199267470e-02 1.66802246352181e-03 
1.05401617768554e+01 1.67587748646765e-02 1.66121803386263e-03 
1.05809360970753e+01 1.65423639201684e-02 1.65446217567987e-03 
1.06217104172953e+01 1.63269795793719e-02 1.64775433257379e-03 
1.06624847375152e+01 1.61126144133813e-02 1.64109395667228e-03 
1.07032590577351e+01 1.58992610769374e-02 1.63448050847458e-03 
1.07440333779551e+01 1.56869123071531e-02 1.62791345669803e-03 
1.07848076981750e+01 1.54755609222625e-02 1.62139227812803e-03 
1.08255820183950e+01 1.52651998203923e-02 1.61491645747032e-03 
1.08663563386149e+01 1.50558219783573e-02 1.60848548720588e-03 
1.09071306588349e+01 1.48474204504764e-02 1.60209886744987e-03 
1.09479049790548e+01 1.46399883674109e-02 1.59575610581424e-03 
1.09886792992748e+01 1.44335189350240e-02 1.58945671727164e-03 
1.10294536194947e+01 1.42280054332607e-02 1.58320022402152e-03 
1.10702279397146e+01 1.40234412150484e-02 1.57698615535948e-03 
1.11110022599346e+01 1.38198197052172e-02 1.57081404754963e-03 
1.11517765801545e+01 1.36171343994398e-02 1.56468344369934e-03 
1.11925509003745e+01 1.34153788631909e-02 1.55859389363630e-03 
1.12333252205944e+01 1.32145467307242e-02 1.55254495378892e-03 
1.12740995408144e+01 1.30146317040692e-02 1.54653618707020e-03 
1.13148738610343e+01 1.28156275520440e-02 1.54056716276269e-03 
1.13556481812542e+01 1.26175281092875e-02 1.53463745640452e-03 
1.13964225014742e+01 1.24203272753074e-02 1.52874664967717e-03 
1.14371968216941e+01 1.22240190135464e-02 1.52289433029717e-03 
1.14779711419141e+01 1.20285973504643e-02 1.51708009191105e-03 
1.15187454621340e+01 1.18340563746359e-02 1.51130353399133e-03 
1.15595197823540e+01 1.16403902358657e-02 1.50550975069903e-03 
1.16002941025739e+01 1.14475977275626e-02 1.49957760777919e-03 
1.16410684227938e+01 1.12557015691142e-02 1.49339061754047e-03 
1.16818427430138e+01 1.10647328205711e-02 1.48686424975311e-03 
1.17226170632337e+01 1.08747380199348e-02 1.47996650406569e-03 
1.17633913834537e+01 1.06857628193493e-02 1.47270287558002e-03 
1.18041657036736e+01 1.04978521078838e-02 1.46508136578993e-03 
1.18449400238936e+01 1.03110498192606e-02 1.45708377702245e-03 
1.18857143441135e+01 1.01253998721839e-02 1.44866204519276e-03 
1.19264886643335e+01 9.94095786337431e-03 1.43979908358067e-03 
1.19672629845534e+01 9.75777789710024e-03 1.43051292418781e-03 
1.20080373047733e+01 9.57591133008506e-03 1.42082383631998e-03 
1.20488116249933e+01 9.39541282854347e-03 1.41075185209319e-03 
1.20895859452132e+01 9.21633089536170e-03 1.40031747127685e-03 
1.21303602654332e+01 9.03870879117997e-03 1.38954059553643e-03 
1.21711345856531e+01 8.86258721502007e-03 1.37844053993541e-03 
1.22119089058731e+01 8.68800435426825e-03 1.36703627157333e-03 
1.22526832260930e+01 8.51499593513073e-03 1.35534640512743e-03 
1.22934575463129e+01 8.34359527348013e-03 1.34338919900964e-03 
1.23342318665329e+01 8.17383332601408e-03 1.33118255212037e-03 
1.23750061867528e+01 8.00573874164974e-03 1.31874400118041e-03 
1.24157805069728e+01 7.83933791308081e-03 1.30609071862263e-03 
1.24565548271927e+01 7.67465502842609e-03 1.29323951102540e-03 
1.24973291474127e+01 7.51171212290133e-03 1.28020681806888e-03 
1.25381034676326e+01 7.35052913044882e-03 1.26700871199605e-03 
1.25788777878525e+01 7.19112393526151e-03 1.25366089756048e-03 
1.26196521080725e+01 7.03351242314137e-03 1.24017871244364e-03 
1.26604264282924e+01 6.87770853263355e-03 1.22657712812355e-03 
