Energy(eV)           EEDF(eV^-(3/2))      Anisotropy(eV^-(3/2))
2.05806779769079e-03 1.14381103055956e+00 1.72661494072310e-04 
6.17420339307238e-03 1.14333537060502e+00 2.77889763225039e-04 
1.02903389884540e-02 1.14265779355957e+00 4.06280712339837e-04 
1.44064745838356e-02 1.14189349899401e+00 5.03184517349337e-04 
1.85226101792171e-02 1.14109218175935e+00 5.78449123950748e-04 
2.26387457745987e-02 1.14028996531788e+00 6.33402301569527e-04 
2.67548813699803e-02 1.13952157310913e+00 6.77448347904970e-04 
3.08710169653619e-02 1.13877225134921e+00 7.14488148230281e-04 
3.49871525607435e-02 1.13805900654085e+00 7.39352208486859e-04 
3.91032881561251e-02 1.13739080419757e+00 7.55787934599770e-04 
4.32194237515067e-02 1.13676774282904e+00 7.67299702122810e-04 
4.73355593468883e-02 1.13618684519393e+00 7.71117508170439e-04 
5.14516949422699e-02 1.13565760777608e+00 7.69764391709169e-04 
5.55678305376514e-02 1.13516917858451e+00 7.66174927060319e-04 
5.96839661330330e-02 1.13472414055163e+00 7.57257934167806e-04 
6.38001017284146e-02 1.13432024251271e+00 7.46703476328058e-04 
6.79162373237962e-02 1.13395195997016e+00 7.32703417265048e-04 
7.20323729191778e-02 1.13362187801364e+00 7.17043274466178e-04 
7.61485085145594e-02 1.13332130393799e+00 7.01035287236510e-04 
8.02646441099410e-02 1.13305170298832e+00 6.81820765679360e-04 
8.43807797053226e-02 1.13280961904742e+00 6.62305604362228e-04 
8.84969153007042e-02 1.13259245027224e+00 6.40757544243386e-04 
9.26130508960857e-02 1.13239980236555e+00 6.19401689116281e-04 
9.67291864914673e-02 1.13222647825011e+00 5.98481697434261e-04 
1.00845322086849e-01 1.13207271663853e+00 5.76276141345581e-04 
1.04961457682231e-01 1.13193558243493e+00 5.54584036841047e-04 
1.09077593277612e-01 1.13181388969275e+00 5.31786884825040e-04 
1.13193728872994e-01 1.13170659771288e+00 5.09685299954555e-04 
1.17309864468375e-01 1.13161117704739e+00 4.87755690700845e-04 
1.21426000063757e-01 1.13152749837037e+00 4.66387467904130e-04 
1.25542135659138e-01 1.13145295236381e+00 4.46890279597487e-04 
1.29658271254520e-01 1.13138700158246e+00 4.26591934223418e-04 
1.33774406849902e-01 1.13132900371926e+00 4.06106931706556e-04 
1.37890542445283e-01 1.13127813292185e+00 3.84825954900552e-04 
1.42006678040665e-01 1.13123418556264e+00 3.64777865030085e-04 
1.46122813636046e-01 1.13119538401414e+00 3.46662883488927e-04 
1.50238949231428e-01 1.13116156969894e+00 3.29278094573052e-04 
1.54355084826810e-01 1.13113165236755e+00 3.14899406144780e-04 
1.58471220422191e-01 1.13110482910112e+00 3.01386780557398e-04 
1.62587356017573e-01 1.13108103328639e+00 2.86740900387789e-04 
1.66703491612954e-01 1.13106017742118e+00 2.70963108813507e-04 
1.70819627208336e-01 1.13104215311174e+00 2.56312972586322e-04 
1.74935762803718e-01 1.13102621595274e+00 2.44229416699523e-04 
1.79051898399099e-01 1.13101204202924e+00 2.32940605109158e-04 
1.83168033994481e-01 1.13099945454455e+00 2.22895813509290e-04 
1.87284169589862e-01 1.13098808525692e+00 2.13771040931570e-04 
1.91400305185244e-01 1.13097790550146e+00 2.05831374127974e-04 
1.95516440780625e-01 1.13096853183554e+00 1.99691346713476e-04 
1.99632576376007e-01 1.13095988859934e+00 1.94131196697007e-04 
2.03748711971389e-01 1.13095185448163e+00 1.89804211227778e-04 
2.07864847566770e-01 1.13094426711906e+00 1.86148161014278e-04 
2.11980983162152e-01 1.13093712682551e+00 1.83729356734426e-04 
2.16097118757533e-01 1.13093019692158e+00 1.82708661011791e-04 
2.20213254352915e-01 1.13092347756595e+00 1.82381119206113e-04 
2.24329389948297e-01 1.13091685064825e+00 1.83464853915044e-04 
2.28445525543678e-01 1.13091022025815e+00 1.85328066386248e-04 
2.32561661139060e-01 1.13090356649605e+00 1.88492787384479e-04 
2.36677796734441e-01 1.13089672308840e+00 1.92825904239976e-04 
2.40793932329823e-01 1.13088968717690e+00 1.98113341589457e-04 
2.44910067925205e-01 1.13088232422387e+00 2.04770123554666e-04 
2.49026203520586e-01 1.13087456372370e+00 2.12220102207391e-04 
2.53142339115968e-01 1.13086634925651e+00 2.20891085346935e-04 
2.57258474711349e-01 1.13085754010927e+00 2.30496724794617e-04 
2.61374610306731e-01 1.13084810892020e+00 2.41211333694977e-04 
2.65490745902112e-01 1.13083788171964e+00 2.53183259778867e-04 
2.69606881497494e-01 1.13082678630215e+00 2.65996110123140e-04 
2.73723017092876e-01 1.13081470630011e+00 2.80086704241737e-04 
2.77839152688257e-01 1.13080147833636e+00 2.95049433750573e-04 
2.81955288283639e-01 1.13078703656075e+00 3.11523272046598e-04 
2.86071423879020e-01 1.13077108687953e+00 3.29466713270376e-04 
2.90187559474402e-01 1.13075352998859e+00 3.47822994236505e-04 
2.94303695069784e-01 1.13073426969535e+00 3.66564559121164e-04 
2.98419830665165e-01 1.13071320741939e+00 3.85952774397308e-04 
3.02535966260547e-01 1.13069018386449e+00 4.07997943633276e-04 
3.06652101855928e-01 1.13066462057021e+00 4.32333836497667e-04 
3.10768237451310e-01 1.13063635499969e+00 4.57171925335124e-04 
3.14884373046692e-01 1.13060522055976e+00 4.82511755427503e-04 
3.19000508642073e-01 1.13057104660695e+00 5.08352852617783e-04 
3.23116644237455e-01 1.13053365845409e+00 5.34694720145091e-04 
3.27232779832836e-01 1.13049287737729e+00 5.61536835842440e-04 
3.31348915428218e-01 1.13044852062357e+00 5.88878649618018e-04 
3.35465051023599e-01 1.13040040141897e+00 6.16719581136017e-04 
3.39581186618981e-01 1.13034832897726e+00 6.45059017662471e-04 
3.43697322214363e-01 1.13029210850927e+00 6.73896312010507e-04 
3.47813457809744e-01 1.13023154123280e+00 7.03230780573833e-04 
3.51929593405126e-01 1.13016642438327e+00 7.35049965669248e-04 
3.56045729000507e-01 1.13009583279910e+00 7.69316384769376e-04 
3.60161864595889e-01 1.13001946925839e+00 8.04226507447182e-04 
3.64278000191271e-01 1.12993705317666e+00 8.39720643581795e-04 
3.68394135786652e-01 1.12984829846917e+00 8.75797584953463e-04 
3.72510271382034e-01 1.12975291357303e+00 9.12456055596188e-04 
3.76626406977415e-01 1.12965060147072e+00 9.49694708784868e-04 
3.80742542572797e-01 1.12954105971510e+00 9.87512124077532e-04 
3.84858678168179e-01 1.12942398045588e+00 1.02590680440030e-03 
3.88974813763560e-01 1.12929905046760e+00 1.06487717311860e-03 
3.93090949358942e-01 1.12916595117935e+00 1.10442157113192e-03 
3.97207084954323e-01 1.12902435870599e+00 1.14453825398449e-03 
4.01323220549705e-01 1.12887394388124e+00 1.18603967049564e-03 
4.05439356145086e-01 1.12871395298458e+00 1.22907016136851e-03 
4.09555491740468e-01 1.12854392261177e+00 1.27286941742138e-03 
4.13671627335850e-01 1.12836347145100e+00 1.31727025574572e-03 
4.17787762931231e-01 1.12817221235451e+00 1.36227020961029e-03 
4.21903898526613e-01 1.12796975238864e+00 1.40786669394702e-03 
4.26020034121994e-01 1.12775569288622e+00 1.45405700182496e-03 
4.30136169717376e-01 1.12752962950173e+00 1.50083830090563e-03 
4.34252305312758e-01 1.12729115226900e+00 1.54820762987994e-03 
4.38368440908139e-01 1.12703984566167e+00 1.59616189490648e-03 
4.42484576503521e-01 1.12677528865658e+00 1.64469786604561e-03 
4.46600712098902e-01 1.12649705479987e+00 1.69381217365969e-03 
4.50716847694284e-01 1.12620471227621e+00 1.74350130482673e-03 
4.54832983289666e-01 1.12589782398097e+00 1.79376159974285e-03 
4.58949118885047e-01 1.12557594759555e+00 1.84458924810386e-03 
4.63065254480429e-01 1.12523863566590e+00 1.89598028550289e-03 
4.67181390075810e-01 1.12488543568430e+00 1.94793058982275e-03 
4.71297525671192e-01 1.12451589017446e+00 2.00043587761320e-03 
4.75413661266573e-01 1.12412953678008e+00 2.05349170048619e-03 
4.79529796861955e-01 1.12372590835684e+00 2.10709344150971e-03 
4.83645932457337e-01 1.12330453306803e+00 2.16123631160621e-03 
4.87762068052718e-01 1.12286493448371e+00 2.21591534597402e-03 
4.91878203648100e-01 1.12240663168366e+00 2.27112540049965e-03 
4.95994339243481e-01 1.12192913936408e+00 2.32686114820104e-03 
5.00110474838863e-01 1.12143196794811e+00 2.38248951633671e-03 
5.04226610434245e-01 1.12091515349509e+00 2.43745323860569e-03 
5.08342746029626e-01 1.12037870916791e+00 2.49235493543662e-03 
5.12458881625008e-01 1.11982217956966e+00 2.54772765073907e-03 
5.16575017220389e-01 1.11924510600384e+00 2.60356566926872e-03 
5.20691152815771e-01 1.11864702658679e+00 2.65986309743256e-03 
5.24807288411153e-01 1.11802747636362e+00 2.71661386044257e-03 
5.28923424006534e-01 1.11738598742763e+00 2.77381169949886e-03 
5.33039559601916e-01 1.11672208904340e+00 2.83145016901679e-03 
5.37155695197297e-01 1.11603530777342e+00 2.88952263388880e-03 
5.41271830792679e-01 1.11532516760850e+00 2.94802226678473e-03 
5.45387966388061e-01 1.11459119010186e+00 3.00694204551431e-03 
5.49504101983442e-01 1.11383289450690e+00 3.06627475042819e-03 
5.53620237578824e-01 1.11304979791895e+00 3.12601296187511e-03 
5.57736373174205e-01 1.11224141542065e+00 3.18614905771580e-03 
5.61852508769587e-01 1.11140726023131e+00 3.24667521089650e-03 
5.65968644364968e-01 1.11054684386018e+00 3.30758338709081e-03 
5.70084779960350e-01 1.10965967626358e+00 3.36886534240550e-03 
5.74200915555732e-01 1.10874526600601e+00 3.43051262115951e-03 
5.78317051151113e-01 1.10780312042523e+00 3.49251655373533e-03 
5.82433186746495e-01 1.10683274580135e+00 3.55486825451383e-03 
5.86549322341876e-01 1.10583364752993e+00 3.61755861988519e-03 
5.90665457937258e-01 1.10480533029908e+00 3.68057832635111e-03 
5.94781593532640e-01 1.10374729827065e+00 3.74391782871993e-03 
5.98897729128021e-01 1.10265905526541e+00 3.80756735839213e-03 
6.03013864723403e-01 1.10154010495236e+00 3.87151692174558e-03 
6.07130000318784e-01 1.10038995104200e+00 3.93575629862153e-03 
6.11246135914166e-01 1.09920809748377e+00 4.00027504092100e-03 
6.15362271509547e-01 1.09799404866744e+00 4.06506247130899e-03 
6.19478407104929e-01 1.09674730962862e+00 4.13010768203702e-03 
6.23594542700311e-01 1.09546738625825e+00 4.19539953388129e-03 
6.27710678295692e-01 1.09415378551616e+00 4.26092665520821e-03 
6.31826813891074e-01 1.09280601564852e+00 4.32667744116409e-03 
6.35942949486455e-01 1.09142358640942e+00 4.39264005299741e-03 
6.40059085081837e-01 1.09000600928625e+00 4.45880241752060e-03 
6.44175220677219e-01 1.08855279772905e+00 4.52515222670505e-03 
6.48291356272600e-01 1.08706346738374e+00 4.59167693743244e-03 
6.52407491867982e-01 1.08553753632915e+00 4.65836377138376e-03 
6.56523627463363e-01 1.08397452531788e+00 4.72519971508324e-03 
6.60639763058745e-01 1.08237395802082e+00 4.79217152011131e-03 
6.64755898654127e-01 1.08073536127540e+00 4.85926570346038e-03 
6.68872034249508e-01 1.07905826533746e+00 4.92646854807004e-03 
6.72988169844890e-01 1.07734220413660e+00 4.99376610353345e-03 
6.77104305440271e-01 1.07558671553508e+00 5.06114418696728e-03 
6.81220441035653e-01 1.07379134159010e+00 5.12858838406514e-03 
6.85336576631035e-01 1.07195562881934e+00 5.19608405033694e-03 
6.89452712226416e-01 1.07007912846978e+00 5.26361631252981e-03 
6.93568847821798e-01 1.06816139678966e+00 5.33117007024056e-03 
6.97684983417179e-01 1.06620199530344e+00 5.39872999772143e-03 
7.01801119012561e-01 1.06420049108969e+00 5.46432017132482e-03 
7.05917254607942e-01 1.06215937918136e+00 5.52783000996643e-03 
7.10033390203324e-01 1.06007849751821e+00 5.59116292679358e-03 
7.14149525798706e-01 1.05795749705620e+00 5.65443276573518e-03 
7.18265661394087e-01 1.05579603465596e+00 5.71762519793515e-03 
7.22381796989469e-01 1.05359377331477e+00 5.78072572470386e-03 
7.26497932584850e-01 1.05135038240001e+00 5.84371968022739e-03 
7.30614068180232e-01 1.04906553788404e+00 5.90659223445272e-03 
7.34730203775614e-01 1.04673892258022e+00 5.96932839613843e-03 
7.38846339370995e-01 1.04437022638021e+00 6.03191301607395e-03 
7.42962474966377e-01 1.04195914649217e+00 6.09433079047740e-03 
7.47078610561758e-01 1.03950538767993e+00 6.15656626456249e-03 
7.51194746157140e-01 1.03700866250286e+00 6.21860383628264e-03 
7.55310881752521e-01 1.03446869155638e+00 6.28042776025623e-03 
7.59427017347903e-01 1.03188520371297e+00 6.34202215186746e-03 
7.63543152943285e-01 1.02925793636350e+00 6.40337099154524e-03 
7.67659288538666e-01 1.02658663565874e+00 6.46445812922902e-03 
7.71775424134048e-01 1.02387105675092e+00 6.52526728901038e-03 
7.75891559729429e-01 1.02111096403513e+00 6.58578207396066e-03 
7.80007695324811e-01 1.01830613139054e+00 6.64598597114134e-03 
7.84123830920193e-01 1.01545634242104e+00 6.70586235679453e-03 
7.88239966515574e-01 1.01256139069536e+00 6.76539450172390e-03 
7.92356102110956e-01 1.00962107998635e+00 6.82456557685423e-03 
7.96472237706337e-01 1.00663522450938e+00 6.88335865897523e-03 
8.00588373301719e-01 1.00360364915947e+00 6.94134979020611e-03 
8.04704508897101e-01 1.00052691838017e+00 6.99830376131753e-03 
8.08820644492482e-01 9.97405296055194e-01 7.05461068243685e-03 
8.12936780087864e-01 9.94238654305074e-01 7.11047779632871e-03 
8.17052915683245e-01 9.91026876366894e-01 7.16588853522171e-03 
8.21169051278627e-01 9.87769856805974e-01 7.22082628184048e-03 
8.25285186874009e-01 9.84467501725308e-01 7.27527437599125e-03 
8.29401322469390e-01 9.81119728972613e-01 7.32921612130742e-03 
8.33517458064772e-01 9.77726468344790e-01 7.38263479216020e-03 
8.37633593660153e-01 9.74287661789600e-01 7.43551364072196e-03 
8.41749729255535e-01 9.70803263604379e-01 7.48783590418447e-03 
8.45865864850916e-01 9.67273240631584e-01 7.53958481213118e-03 
8.49982000446298e-01 9.63697572450983e-01 7.59074359405748e-03 
8.54098136041680e-01 9.60076251568291e-01 7.64129548703697e-03 
8.58214271637061e-01 9.56409283600047e-01 7.69122374353472e-03 
8.62330407232443e-01 9.52696687454534e-01 7.74051163935996e-03 
8.66446542827824e-01 9.48938495508553e-01 7.78914248175400e-03 
8.70562678423206e-01 9.45134753779824e-01 7.83709961761563e-03 
8.74678814018588e-01 9.41285522094834e-01 7.88436644185382e-03 
8.78794949613969e-01 9.37390874251910e-01 7.93092640586421e-03 
8.82911085209351e-01 9.33450898179332e-01 7.97676302613278e-03 
8.87027220804732e-01 9.29465696088256e-01 8.02185989295059e-03 
8.91143356400114e-01 9.25435384620269e-01 8.06620067924261e-03 
8.95259491995495e-01 9.21360094989345e-01 8.10976914950625e-03 
8.99375627590877e-01 9.17239973118025e-01 8.15254916884796e-03 
9.03491763186259e-01 9.13075179767593e-01 8.19452471211959e-03 
9.07607898781640e-01 9.08865890662057e-01 8.23567987314225e-03 
9.11724034377022e-01 9.04612296605737e-01 8.27599887401874e-03 
9.15840169972403e-01 9.00314603594250e-01 8.31546607452266e-03 
9.19956305567785e-01 8.95973032918696e-01 8.35406598156122e-03 
9.24072441163167e-01 8.91587821262857e-01 8.39178325870593e-03 
9.28188576758548e-01 8.87159220793195e-01 8.42860273577838e-03 
9.32304712353930e-01 8.82687499241480e-01 8.46450941849206e-03 
9.36420847949311e-01 8.78172939979843e-01 8.49948849814026e-03 
9.40536983544693e-01 8.73615842088064e-01 8.53352536132001e-03 
9.44653119140075e-01 8.69016520412923e-01 8.56660559968663e-03 
9.48769254735456e-01 8.64375305619432e-01 8.59871501973381e-03 
9.52885390330838e-01 8.59692544233757e-01 8.62983965258725e-03 
9.57001525926219e-01 8.54968598677677e-01 8.65996576380519e-03 
9.61117661521601e-01 8.50203847294395e-01 8.68907986317694e-03 
9.65233797116983e-01 8.45398684365550e-01 8.71716871451162e-03 
9.69349932712364e-01 8.40553520119262e-01 8.74421934541244e-03 
9.73466068307746e-01 8.35668780729060e-01 8.77021905702053e-03 
9.77582203903127e-01 8.30744908303542e-01 8.79515543372236e-03 
9.81698339498509e-01 8.25782360866626e-01 8.81901635281410e-03 
9.85814475093890e-01 8.20781612328260e-01 8.84178999411105e-03 
9.89930610689272e-01 8.15743152445443e-01 8.86346484949578e-03 
9.94046746284654e-01 8.10667486773458e-01 8.88402973238939e-03 
9.98162881880035e-01 8.05555136607177e-01 8.90322296778813e-03 
1.00227901747542e+00 8.00407243757695e-01 8.91664011779565e-03 
1.00639515307080e+00 7.95235030714108e-01 8.92464810671426e-03 
1.01051128866618e+00 7.90039009360984e-01 8.93171071724859e-03 
1.01462742426156e+00 7.84819700488662e-01 8.93782337974280e-03 
1.01874355985694e+00 7.79577633679531e-01 8.94298179034147e-03 
1.02285969545232e+00 7.74313347189073e-01 8.94718191496940e-03 
1.02697583104771e+00 7.69027387821664e-01 8.95041999320848e-03 
1.03109196664309e+00 7.63720310801155e-01 8.95269254206623e-03 
1.03520810223847e+00 7.58392679636240e-01 8.95399635962943e-03 
1.03932423783385e+00 7.53045065980639e-01 8.95432852860254e-03 
1.04344037342923e+00 7.47678049488109e-01 8.95368641972648e-03 
1.04755650902461e+00 7.42292217662331e-01 8.95206769507004e-03 
1.05167264462000e+00 7.36888165701684e-01 8.94947031119296e-03 
1.05578878021538e+00 7.31466496338956e-01 8.94589252218015e-03 
1.05990491581076e+00 7.26027819676025e-01 8.94133288253634e-03 
1.06402105140614e+00 7.20572753013573e-01 8.93579024994110e-03 
1.06813718700152e+00 7.15101920675851e-01 8.92926378786254e-03 
1.07225332259690e+00 7.09615953830583e-01 8.92175296802131e-03 
1.07636945819229e+00 7.04115490304048e-01 8.91325757270586e-03 
1.08048559378767e+00 6.98601174391405e-01 8.90377769693306e-03 
1.08460172938305e+00 6.93073656662338e-01 8.89331375045063e-03 
1.08871786497843e+00 6.87533593762076e-01 8.88186645957991e-03 
1.09283400057381e+00 6.81981648207888e-01 8.86943686889622e-03 
1.09695013616919e+00 6.76418488181108e-01 8.85602634274038e-03 
1.10106627176457e+00 6.70844787314793e-01 8.84163656656164e-03 
1.10518240735996e+00 6.65261224477096e-01 8.82626954808719e-03 
1.10929854295534e+00 6.59668483550453e-01 8.80992761831792e-03 
1.11341467855072e+00 6.54067253206672e-01 8.79261343234614e-03 
1.11753081414610e+00 6.48458226678041e-01 8.77432996999099e-03 
1.12164694974148e+00 6.42842101524548e-01 8.75508053625539e-03 
1.12576308533686e+00 6.37219579397332e-01 8.73486876159434e-03 
1.12987922093225e+00 6.31591365798478e-01 8.71369860199767e-03 
1.13399535652763e+00 6.25958169837276e-01 8.69157433888530e-03 
1.13811149212301e+00 6.20320703983065e-01 8.66850057881087e-03 
1.14222762771839e+00 6.14679683814792e-01 8.64448225297308e-03 
1.14634376331377e+00 6.09035827767413e-01 8.61952461653377e-03 
1.15045989890915e+00 6.03389856875281e-01 8.59363324774170e-03 
1.15457603450454e+00 5.97742494512646e-01 8.56681404685868e-03 
1.15869217009992e+00 5.92094466131420e-01 8.53907323489009e-03 
1.16280830569530e+00 5.86446498996350e-01 8.51041735211684e-03 
1.16692444129068e+00 5.80799321917748e-01 8.48085325642886e-03 
1.17104057688606e+00 5.75153664981927e-01 8.45038812145897e-03 
1.17515671248144e+00 5.69510259279518e-01 8.41902943451830e-03 
1.17927284807683e+00 5.63869836631794e-01 8.38678499433255e-03 
1.18338898367221e+00 5.58233129315198e-01 8.35366290857626e-03 
1.18750511926759e+00 5.52600869784221e-01 8.31967159121083e-03 
1.19162125486297e+00 5.46973790392804e-01 8.28481975962182e-03 
1.19573739045835e+00 5.41352623114430e-01 8.24911643155837e-03 
1.19985352605373e+00 5.35738099261092e-01 8.21263149515487e-03 
1.20396966164911e+00 5.30130769503695e-01 8.17544137342452e-03 
1.20808579724450e+00 5.24531160645358e-01 8.13749001173231e-03 
1.21220193283988e+00 5.18940008613660e-01 8.09871534957318e-03 
1.21631806843526e+00 5.13358047675799e-01 8.05912785703738e-03 
1.22043420403064e+00 5.07786010148619e-01 8.01873828914046e-03 
1.22455033962602e+00 5.02224626108499e-01 7.97755768139272e-03 
1.22866647522140e+00 4.96674623101280e-01 7.93559734517584e-03 
1.23278261081679e+00 4.91136725852427e-01 7.89286886292709e-03 
1.23689874641217e+00 4.85611655977637e-01 7.84938408313597e-03 
1.24101488200755e+00 4.80100131694064e-01 7.80515511515556e-03 
1.24513101760293e+00 4.74602867532384e-01 7.76019432382980e-03 
1.24924715319831e+00 4.69120574049879e-01 7.71451432394075e-03 
1.25336328879369e+00 4.63653957544751e-01 7.66812797448100e-03 
1.25747942438908e+00 4.58203719771858e-01 7.62104837275135e-03 
1.26159555998446e+00 4.52770557660081e-01 7.57328884828971e-03 
1.26571169557984e+00 4.47355163031502e-01 7.52486295663417e-03 
1.26982783117522e+00 4.41958222322619e-01 7.47578447292457e-03 
1.27394396677060e+00 4.36580416307776e-01 7.42606738534636e-03 
1.27806010236598e+00 4.31222419825007e-01 7.37572588842069e-03 
