Energy(eV)           EEDF(eV^-(3/2))      Anisotropy(eV^-(3/2))
3.48689623363035e-02 4.80479635771793e-02 1.72932069595620e-03 
1.04606887008911e-01 4.80044252497770e-02 6.26462738224817e-03 
1.74344811681518e-01 4.79919823187253e-02 6.19846580135542e-03 
2.44082736354125e-01 4.79866009623684e-02 6.15377291040985e-03 
3.13820661026732e-01 4.79805870450180e-02 6.11874544898454e-03 
3.83558585699339e-01 4.79711070107557e-02 6.09373165514933e-03 
4.53296510371946e-01 4.79573014433533e-02 6.07202504343100e-03 
5.23034435044553e-01 4.79393355270095e-02 6.05132795576004e-03 
5.92772359717160e-01 4.79173164891327e-02 6.03122642296165e-03 
6.62510284389767e-01 4.78912768547074e-02 6.01177871784370e-03 
7.32248209062374e-01 4.78612300172605e-02 5.99300473886078e-03 
8.01986133734981e-01 4.78272290615396e-02 5.97471473796399e-03 
8.71724058407588e-01 4.77892920147238e-02 5.95678213964449e-03 
9.41461983080195e-01 4.77474364733335e-02 5.93913137210282e-03 
1.01119990775280e+00 4.77016807307844e-02 5.92175999548585e-03 
1.08093783242541e+00 4.76525572435838e-02 5.90456259746082e-03 
1.15067575709802e+00 4.76003452539980e-02 5.88753475370713e-03 
1.22041368177062e+00 4.75450594472153e-02 5.87065884916105e-03 
1.29015160644323e+00 4.74863481534459e-02 5.85428146773918e-03 
1.35988953111584e+00 4.74242921290248e-02 5.83890907356609e-03 
1.42962745578844e+00 4.73591903662240e-02 5.82463009342524e-03 
1.49936538046105e+00 4.72910460430753e-02 5.81124776891761e-03 
1.56910330513366e+00 4.72203135832165e-02 5.79851540438209e-03 
1.63884122980627e+00 4.71474625335482e-02 5.78624433192532e-03 
1.70857915447887e+00 4.70724964476884e-02 5.77432108105108e-03 
1.77831707915148e+00 4.69954201507502e-02 5.76263348077182e-03 
1.84805500382409e+00 4.69162395987957e-02 5.75109008618423e-03 
1.91779292849669e+00 4.68349617689146e-02 5.73959458592955e-03 
1.98753085316930e+00 4.67507402909074e-02 5.72813859900173e-03 
2.05726877784191e+00 4.66633108637385e-02 5.71665020378869e-03 
2.12700670251452e+00 4.65726875844643e-02 5.70509306489532e-03 
2.19674462718712e+00 4.64798831552564e-02 5.69335961351759e-03 
2.26648255185973e+00 4.63846966703511e-02 5.68158628208958e-03 
2.33622047653234e+00 4.62867291870803e-02 5.67007474307766e-03 
2.40595840120494e+00 4.61859851598149e-02 5.65902213154131e-03 
2.47569632587755e+00 4.60824670348341e-02 5.64840642496854e-03 
2.54543425055016e+00 4.59760661685289e-02 5.63811993901443e-03 
2.61517217522277e+00 4.58661593443311e-02 5.62809415891084e-03 
2.68491009989537e+00 4.57527556728832e-02 5.61822202164739e-03 
2.75464802456798e+00 4.56358655489988e-02 5.60842883970384e-03 
2.82438594924059e+00 4.55155006733486e-02 5.59864979284893e-03 
2.89412387391319e+00 4.53919867531534e-02 5.58881277747630e-03 
2.96386179858580e+00 4.52653922890617e-02 5.57887265677201e-03 
3.03359972325841e+00 4.51357316943612e-02 5.56878484627372e-03 
3.10333764793101e+00 4.50033800973358e-02 5.55849212050042e-03 
3.17307557260362e+00 4.48683598798516e-02 5.54796726585555e-03 
3.24281349727623e+00 4.47306880186478e-02 5.53723618262814e-03 
3.31255142194884e+00 4.45903796828641e-02 5.52659616455604e-03 
3.38228934662144e+00 4.44474372804329e-02 5.51645543158127e-03 
3.45202727129405e+00 4.43018543596137e-02 5.50690375204480e-03 
3.52176519596666e+00 4.41536269813925e-02 5.49781586828296e-03 
3.59150312063926e+00 4.40027536668301e-02 5.48907768359046e-03 
3.66124104531187e+00 4.38493035933814e-02 5.48058400458046e-03 
3.73097896998448e+00 4.36933918546532e-02 5.47224134264799e-03 
3.80071689465709e+00 4.35350234047689e-02 5.46396927353419e-03 
3.87045481932969e+00 4.33742053917098e-02 5.45569171733561e-03 
3.94019274400230e+00 4.32109470905529e-02 5.44733973333677e-03 
4.00993066867491e+00 4.30452598382114e-02 5.43885218744497e-03 
4.07966859334751e+00 4.28769501466430e-02 5.43017868897379e-03 
4.14940651802012e+00 4.27059189899729e-02 5.42126484788236e-03 
4.21914444269273e+00 4.25321845680630e-02 5.41206120181851e-03 
4.28888236736533e+00 4.23557669450597e-02 5.40252675839939e-03 
4.35862029203794e+00 4.21766879847206e-02 5.39262508811880e-03 
4.42835821671055e+00 4.19949712903887e-02 5.38232392621422e-03 
4.49809614138316e+00 4.18106421422550e-02 5.37172529943618e-03 
4.56783406605576e+00 4.16239187566275e-02 5.36103840214707e-03 
4.63757199072837e+00 4.14350345511351e-02 5.35032699097546e-03 
4.70730991540098e+00 4.12440014171599e-02 5.33953181482357e-03 
4.77704784007358e+00 4.10508336346111e-02 5.32859274666345e-03 
4.84678576474619e+00 4.08555477207907e-02 5.31745612794011e-03 
4.91652368941880e+00 4.06581623311010e-02 5.30607431135412e-03 
4.98626161409141e+00 4.04586981115418e-02 5.29440624203496e-03 
5.05599953876401e+00 4.02570509605662e-02 5.28238721240752e-03 
5.12573746343662e+00 4.00529576806346e-02 5.26987841256813e-03 
5.19547538810923e+00 3.98464549216890e-02 5.25673041283423e-03 
5.26521331278183e+00 3.96375840640822e-02 5.24290088642626e-03 
5.33495123745444e+00 3.94263872691830e-02 5.22839960706517e-03 
5.40468916212705e+00 3.92129073836791e-02 5.21323754256843e-03 
5.47442708679965e+00 3.89971878937208e-02 5.19742672328501e-03 
5.54416501147226e+00 3.87792728336143e-02 5.18098013463482e-03 
5.61390293614487e+00 3.85592067431892e-02 5.16391178978386e-03 
5.68364086081748e+00 3.83370345650003e-02 5.14623727199716e-03 
5.75337878549008e+00 3.81128015489799e-02 5.12797351051868e-03 
5.82311671016269e+00 3.78865531606645e-02 5.10913812170617e-03 
5.89285463483530e+00 3.76583350370275e-02 5.08974931071302e-03 
5.96259255950790e+00 3.74281928997699e-02 5.06982578242837e-03 
6.03233048418051e+00 3.71961725160232e-02 5.04938819034813e-03 
6.10206840885312e+00 3.69621275356942e-02 5.02847658474736e-03 
6.17180633352573e+00 3.67260968555096e-02 5.00712206070238e-03 
6.24154425819833e+00 3.64881256704954e-02 4.98535080210533e-03 
6.31128218287094e+00 3.62482591921827e-02 4.96317859162798e-03 
6.38102010754355e+00 3.60065425651331e-02 4.94062167132412e-03 
6.45075803221615e+00 3.57630208305651e-02 4.91769661627626e-03 
6.52049595688876e+00 3.55177388527234e-02 4.89442025320567e-03 
6.59023388156137e+00 3.52707412887230e-02 4.87080958831385e-03 
6.65997180623398e+00 3.50220725207738e-02 4.84688173456567e-03 
6.72970973090658e+00 3.47717766324506e-02 4.82265385822797e-03 
6.79944765557919e+00 3.45198973458536e-02 4.79814316572581e-03 
6.86918558025180e+00 3.42664779989480e-02 4.77336685130147e-03 
6.93892350492440e+00 3.40115614880623e-02 4.74834205897134e-03 
7.00866142959701e+00 3.37551902493962e-02 4.72308934909552e-03 
7.07839935426962e+00 3.34967080261295e-02 4.69765428465589e-03 
7.14813727894223e+00 3.32357464763771e-02 4.67201930649183e-03 
7.21787520361483e+00 3.29723604893578e-02 4.64616830786427e-03 
7.28761312828744e+00 3.27066046627964e-02 4.62011892263658e-03 
7.35735105296005e+00 3.24385329232247e-02 4.59389115493695e-03 
7.42708897763265e+00 3.21681985110175e-02 4.56750438842098e-03 
7.49682690230526e+00 3.18956539365328e-02 4.54097739466501e-03 
7.56656482697787e+00 3.16209509692757e-02 4.51432832985587e-03 
7.63630275165047e+00 3.13441405995123e-02 4.48757474517157e-03 
7.70604067632308e+00 3.10652730312446e-02 4.46073358564192e-03 
7.77577860099569e+00 3.07843976489784e-02 4.43382120218644e-03 
7.84551652566830e+00 3.05015630141879e-02 4.40685335240914e-03 
7.91525445034090e+00 3.02168168369024e-02 4.37984521399266e-03 
7.98499237501351e+00 2.99302059753367e-02 4.35280944225484e-03 
8.05473029968612e+00 2.96419967336956e-02 4.32574485397425e-03 
8.12446822435872e+00 2.93527813613037e-02 4.29865177384197e-03 
8.19420614903133e+00 2.90625945029969e-02 4.27157396081023e-03 
8.26394407370394e+00 2.87714699296425e-02 4.24452376462444e-03 
8.33368199837655e+00 2.84794405306667e-02 4.21751301570489e-03 
8.40341992304915e+00 2.81865383292384e-02 4.19055303107330e-03 
8.47315784772176e+00 2.78927944773472e-02 4.16365293063038e-03 
8.54289577239437e+00 2.75982395122273e-02 4.13681905979993e-03 
8.61263369706697e+00 2.73029034480610e-02 4.11005850831547e-03 
8.68237162173958e+00 2.70068155441153e-02 4.08338020488701e-03 
8.75210954641219e+00 2.67100042326590e-02 4.05679312000200e-03 
8.82184747108479e+00 2.64124971384216e-02 4.03030575616437e-03 
8.89158539575740e+00 2.61143210815829e-02 4.00392616640199e-03 
8.96132332043001e+00 2.58155020975177e-02 3.97766196425149e-03 
9.03106124510262e+00 2.55160654412088e-02 3.95152034154935e-03 
9.10079916977522e+00 2.52160356071535e-02 3.92550807830437e-03 
9.17053709444783e+00 2.49154363350095e-02 3.89963155981494e-03 
9.24027501912044e+00 2.46142906295410e-02 3.87389678721904e-03 
9.31001294379304e+00 2.43126207671921e-02 3.84830939527067e-03 
9.37975086846565e+00 2.40104483157429e-02 3.82287466157767e-03 
9.44948879313826e+00 2.37077941418064e-02 3.79759752063948e-03 
9.51922671781086e+00 2.34046784305700e-02 3.77248257251255e-03 
9.58896464248347e+00 2.31011206941318e-02 3.74753409781361e-03 
9.65870256715608e+00 2.27971397909865e-02 3.72275606686688e-03 
9.72844049182869e+00 2.24927539349458e-02 3.69815215397315e-03 
9.79817841650129e+00 2.21879807142937e-02 3.67372574626820e-03 
9.86791634117390e+00 2.18828371011628e-02 3.64947995726507e-03 
9.93765426584651e+00 2.15773394702930e-02 3.62541763540257e-03 
1.00073921905191e+01 2.12715036087470e-02 3.60152160360193e-03 
1.00771301151917e+01 2.09666825954707e-02 3.57773076538310e-03 
1.01468680398643e+01 2.06637374999234e-02 3.55408753500165e-03 
1.02166059645369e+01 2.03626535420911e-02 3.53064090855211e-03 
1.02863438892095e+01 2.00634157785667e-02 3.50739241728947e-03 
1.03560818138822e+01 1.97660091228979e-02 3.48434339482179e-03 
1.04258197385548e+01 1.94704183583826e-02 3.46149498791803e-03 
1.04955576632274e+01 1.91766281566544e-02 3.43884816320927e-03 
1.05652955879000e+01 1.88846230894100e-02 3.41640371733089e-03 
1.06350335125726e+01 1.85943876453377e-02 3.39416228757275e-03 
1.07047714372452e+01 1.83059062400960e-02 3.37212436316811e-03 
1.07745093619178e+01 1.80191632313790e-02 3.35028928105693e-03 
1.08442472865904e+01 1.77341431003377e-02 3.32865493627653e-03 
1.09139852112630e+01 1.74508305165462e-02 3.30721992268366e-03 
1.09837231359356e+01 1.71692101543164e-02 3.28598431047717e-03 
1.10534610606082e+01 1.68892666245137e-02 3.26494849000218e-03 
1.11231989852808e+01 1.66109844879721e-02 3.24411267727611e-03 
1.11929369099534e+01 1.63343482717667e-02 3.22347692396458e-03 
1.12626748346260e+01 1.60593424809899e-02 3.20304112917382e-03 
1.13324127592987e+01 1.57859516130699e-02 3.18280504842486e-03 
1.14021506839713e+01 1.55141601680700e-02 3.16276830424533e-03 
1.14718886086439e+01 1.52439526612488e-02 3.14290484236678e-03 
1.15416265333165e+01 1.49753110047523e-02 3.12293097351035e-03 
1.16113644579891e+01 1.47082035669270e-02 3.10237485154214e-03 
1.16811023826617e+01 1.44427015977959e-02 3.08103899597154e-03 
1.17508403073343e+01 1.41788729264095e-02 3.05896456579287e-03 
1.18205782320069e+01 1.39167820183183e-02 3.03619191970851e-03 
1.18903161566795e+01 1.36564900352702e-02 3.01276061765831e-03 
1.19600540813521e+01 1.33980548929183e-02 2.98870942412893e-03 
1.20297920060247e+01 1.31415313204451e-02 2.96407321241762e-03 
1.20995299306973e+01 1.28874773911797e-02 2.93886509668224e-03 
1.21692678553699e+01 1.26359722688892e-02 2.91314740290376e-03 
1.22390057800425e+01 1.23870517685856e-02 2.88695743877172e-03 
1.23087437047151e+01 1.21407485577797e-02 2.86032941150011e-03 
1.23784816293878e+01 1.18970922472174e-02 2.83329666201018e-03 
1.24482195540604e+01 1.16561094816407e-02 2.80589167360952e-03 
1.25179574787330e+01 1.14178240279871e-02 2.77814608133593e-03 
1.25876954034056e+01 1.11822568635118e-02 2.75009068089127e-03 
1.26574333280782e+01 1.09494262614318e-02 2.72175543913115e-03 
1.27271712527508e+01 1.07193478762423e-02 2.69313350965120e-03 
1.27969091774234e+01 1.04920289680892e-02 2.66418079269190e-03 
1.28666471020960e+01 1.02674913778542e-02 2.63488635187663e-03 
1.29363850267686e+01 1.00457561327257e-02 2.60527988630293e-03 
1.30061229514412e+01 9.82684129660713e-03 2.57539461614146e-03 
1.30758608761138e+01 9.61076206732773e-03 2.54526279738522e-03 
1.31455988007864e+01 9.39753087308404e-03 2.51491573295256e-03 
1.32153367254590e+01 9.18715746665451e-03 2.48438378484588e-03 
1.32850746501316e+01 8.97964901868242e-03 2.45369630349724e-03 
1.33548125748043e+01 8.77501022265973e-03 2.42288163910086e-03 
1.34245504994769e+01 8.57324338512769e-03 2.39196732740674e-03 
1.34942884241495e+01 8.37434849837172e-03 2.36098012179494e-03 
1.35640263488221e+01 8.17832332430586e-03 2.32994591534253e-03 
1.36337642734947e+01 7.98516347927154e-03 2.29888973418398e-03 
1.37035021981673e+01 7.79486251802504e-03 2.26781518625416e-03 
1.37732401228399e+01 7.60740756496865e-03 2.23669090765777e-03 
1.38429780475125e+01 7.42279135364362e-03 2.20549198795096e-03 
1.39127159721851e+01 7.24101336233667e-03 2.17423081933885e-03 
1.39824538968577e+01 7.06207065744963e-03 2.14293568361467e-03 
1.40521918215303e+01 6.88595799029119e-03 2.11163385384975e-03 
1.41219297462029e+01 6.71266789217375e-03 2.08035161191345e-03 
1.41916676708755e+01 6.54219076719599e-03 2.04911426672136e-03 
1.42614055955481e+01 6.37451498323361e-03 2.01794617275618e-03 
1.43311435202208e+01 6.20962696059496e-03 1.98687074921034e-03 
1.44008814448934e+01 6.04751125880720e-03 1.95591049931507e-03 
1.44706193695660e+01 5.88815066106204e-03 1.92508703019141e-03 
1.45403572942386e+01 5.73152625673191e-03 1.89442107286883e-03 
1.46100952189112e+01 5.57761752154467e-03 1.86393250274023e-03 
1.46798331435838e+01 5.42640239578383e-03 1.83362666785452e-03 
1.47495710682564e+01 5.27785354964821e-03 1.80344690326646e-03 
1.48193089929290e+01 5.13193632353372e-03 1.77330870449720e-03 
1.48890469176016e+01 4.98864451290673e-03 1.74319187172883e-03 
1.49587848422742e+01 4.84796941591030e-03 1.71312646915345e-03 
1.50285227669468e+01 4.70989994851587e-03 1.68314380462224e-03 
1.50982606916194e+01 4.57450282346418e-03 1.65326283492673e-03 
1.51679986162920e+01 4.44176755388540e-03 1.62351509858456e-03 
1.52377365409646e+01 4.31167349934991e-03 1.59392595193642e-03 
1.53074744656373e+01 4.18419813720938e-03 1.56451893622854e-03 
1.53772123903099e+01 4.05931717017538e-03 1.53531644977703e-03 
1.54469503149825e+01 3.93700463050655e-03 1.50633977866234e-03 
1.55166882396551e+01 3.81723298096991e-03 1.47760912774586e-03 
1.55864261643277e+01 3.69997321241341e-03 1.44914363731476e-03 
1.56561640890003e+01 3.58519494046869e-03 1.42096141485676e-03 
1.57259020136729e+01 3.47286649647632e-03 1.39307959761152e-03 
1.57956399383455e+01 3.36295501268771e-03 1.36551287096082e-03 
1.58653778630181e+01 3.25540294622378e-03 1.33788956702714e-03 
1.59351157876907e+01 3.15020816603441e-03 1.31020150388690e-03 
1.60048537123633e+01 3.04731993131411e-03 1.28242260988620e-03 
1.60745916370359e+01 2.94676850662813e-03 1.25453332612018e-03 
1.61443295617085e+01 2.84852475091114e-03 1.22657088855952e-03 
1.62140674863811e+01 2.75261692682428e-03 1.19857117910900e-03 
1.62838054110538e+01 2.65901296893296e-03 1.17058722857481e-03 
1.63535433357264e+01 2.56773274484869e-03 1.14265163063189e-03 
1.64232812603990e+01 2.47873905518436e-03 1.11481378279776e-03 
1.64930191850716e+01 2.39204400800169e-03 1.08711110733440e-03 
1.65627571097442e+01 2.30761085195519e-03 1.05962288759738e-03 
1.66324950344168e+01 2.22544801896937e-03 1.03240589269189e-03 
1.67022329590894e+01 2.14550280425036e-03 1.00550955972180e-03 
1.67719708837620e+01 2.06776661556732e-03 9.78944546055331e-04 
1.68417088084346e+01 1.99218527368986e-03 9.52740250959209e-04 
1.69114467331072e+01 1.91874578909666e-03 9.26904469107235e-04 
1.69811846577798e+01 1.84739298391688e-03 9.01457757023225e-04 
1.70509225824524e+01 1.77812347559560e-03 8.76376375370287e-04 
1.71206605071250e+01 1.71092590144013e-03 8.51633254651282e-04 
1.71903984317976e+01 1.64578492895045e-03 8.27227356749107e-04 
1.72601363564703e+01 1.58264758227707e-03 8.03181367687881e-04 
1.73298742811429e+01 1.52149534579241e-03 7.79505457069197e-04 
1.73996122058155e+01 1.46227402270597e-03 7.56219697192330e-04 
1.74693501304881e+01 1.40496236361094e-03 7.33330189647783e-04 
1.75390880551607e+01 1.34950543725742e-03 7.10849903885191e-04 
1.76088259798333e+01 1.29587777036351e-03 6.88775354397609e-04 
1.76785639045059e+01 1.24402578808665e-03 6.67118487736028e-04 
1.77483018291785e+01 1.19392529361559e-03 6.45881030891688e-04 
1.78180397538511e+01 1.14552284439091e-03 6.25076466911748e-04 
1.78877776785237e+01 1.09879258886503e-03 6.04704065499334e-04 
1.79575156031963e+01 1.05368160546097e-03 5.84774818408174e-04 
1.80272535278689e+01 1.01016278606802e-03 5.65283593118034e-04 
1.80969914525415e+01 9.68182816014519e-04 5.46234993218765e-04 
1.81667293772141e+01 9.27714279688037e-04 5.27622517379641e-04 
1.82364673018868e+01 8.88706916703693e-04 5.09453013392481e-04 
1.83062052265594e+01 8.51132881749065e-04 4.91721320097529e-04 
1.83759431512320e+01 8.14943099881724e-04 4.74432600401102e-04 
1.84456810759046e+01 7.80109359308203e-04 4.57580275715841e-04 
1.85154190005772e+01 7.46583979084842e-04 4.41170967318674e-04 
1.85851569252498e+01 7.14340496039991e-04 4.25203031489710e-04 
1.86548948499224e+01 6.83332500745607e-04 4.09682398317373e-04 
1.87246327745950e+01 6.53530561011273e-04 3.94600214708659e-04 
1.87943706992676e+01 6.24889112070998e-04 3.79955579113713e-04 
1.88641086239402e+01 5.97379281237374e-04 3.65737826659078e-04 
1.89338465486128e+01 5.70957501773986e-04 3.51945012928913e-04 
1.90035844732854e+01 5.45595602106535e-04 3.38566072839439e-04 
1.90733223979580e+01 5.21252053109789e-04 3.25598164533776e-04 
1.91430603226306e+01 4.97899501875372e-04 3.13029957258081e-04 
1.92127982473032e+01 4.75498475026034e-04 3.00857847002594e-04 
1.92825361719759e+01 4.54022533848120e-04 2.89070354735356e-04 
1.93522740966485e+01 4.33434260423584e-04 2.77663238901381e-04 
1.94220120213211e+01 4.13708205797677e-04 2.66624973999870e-04 
1.94917499459937e+01 3.94808991518139e-04 2.55950794715315e-04 
1.95614878706663e+01 3.76712216015462e-04 2.45629216702817e-04 
1.96312257953389e+01 3.59384511058310e-04 2.35655053926039e-04 
1.97009637200115e+01 3.42802564114087e-04 2.26016937905200e-04 
1.97707016446841e+01 3.26934976886085e-04 2.16709354418572e-04 
1.98404395693567e+01 3.11759553433453e-04 2.07721113808298e-04 
1.99101774940293e+01 2.97246816053906e-04 1.99047274952379e-04 
1.99799154187019e+01 2.83376229670407e-04 1.90677967024907e-04 
2.00496533433745e+01 2.70114352172397e-04 1.82609194287794e-04 
2.01193912680471e+01 2.57420437201136e-04 1.74838556924075e-04 
2.01891291927197e+01 2.45270162135115e-04 1.67357252912103e-04 
2.02588671173924e+01 2.33646116837994e-04 1.60154745591662e-04 
2.03286050420650e+01 2.22525510311129e-04 1.53224806810702e-04 
2.03983429667376e+01 2.11891850624120e-04 1.46557320179328e-04 
2.04680808914102e+01 2.01723815851361e-04 1.40146127724574e-04 
2.05378188160828e+01 1.92005819812811e-04 1.33981543213504e-04 
2.06075567407554e+01 1.82717945831789e-04 1.28057513854836e-04 
2.06772946654280e+01 1.73845496131708e-04 1.22364789353586e-04 
2.07470325901006e+01 1.65369894776344e-04 1.16897451535380e-04 
2.08167705147732e+01 1.57277310956896e-04 1.11646688169746e-04 
2.08865084394458e+01 1.49550444808250e-04 1.06606740066298e-04 
2.09562463641184e+01 1.42176307693862e-04 1.01769231957910e-04 
2.10259842887910e+01 1.35138811450312e-04 9.71285834145147e-05 
2.10957222134636e+01 1.28425782116589e-04 9.26768522044688e-05 
2.11654601381362e+01 1.22022279563528e-04 8.84086522975290e-05 
2.12351980628089e+01 1.15916914899777e-04 8.43164681178699e-05 
2.13049359874815e+01 1.10095833412228e-04 8.03951199659467e-05 
2.13746739121541e+01 1.04548400093510e-04 7.66375104370463e-05 
2.14444118368267e+01 9.92617843743053e-05 7.30386747877169e-05 
2.15141497614993e+01 9.42260728362079e-05 6.95919235170984e-05 
2.15838876861719e+01 8.94293993771374e-05 6.62925124981825e-05 
2.16536256108445e+01 8.48625391839887e-05 6.31341483045317e-05 
