Energy(eV)           EEDF(eV^-(3/2))      Anisotropy(eV^-(3/2))
1.77783634397218e-03 1.52414393944026e+00 4.09585511698764e-04 
5.33350903191654e-03 1.52259078621984e+00 5.66720272457011e-04 
8.88918171986090e-03 1.52049704961066e+00 8.02909015458603e-04 
1.24448544078053e-02 1.51831209649642e+00 9.64688057132467e-04 
1.60005270957496e-02 1.51613402735724e+00 1.09519708522953e-03 
1.95561997836940e-02 1.51395924404073e+00 1.20706832715091e-03 
2.31118724716383e-02 1.51181418135802e+00 1.30021052831525e-03 
2.66675451595827e-02 1.50971986024584e+00 1.36731530255158e-03 
3.02232178475270e-02 1.50775011382454e+00 1.41650626018385e-03 
3.37788905354714e-02 1.50587191953392e+00 1.46740919612131e-03 
3.73345632234158e-02 1.50405466002405e+00 1.50966388273109e-03 
4.08902359113601e-02 1.50233114008760e+00 1.54418071900231e-03 
4.44459085993045e-02 1.50067103512807e+00 1.57858629046380e-03 
4.80015812872488e-02 1.49907610705767e+00 1.60230467034162e-03 
5.15572539751932e-02 1.49756414968137e+00 1.61432787990969e-03 
5.51129266631376e-02 1.49613862254437e+00 1.61550814183571e-03 
5.86685993510819e-02 1.49481116377987e+00 1.60300801883148e-03 
6.22242720390263e-02 1.49359175796847e+00 1.57663188599102e-03 
6.57799447269706e-02 1.49248798451723e+00 1.53638264581268e-03 
6.93356174149150e-02 1.49150502453312e+00 1.49047105698055e-03 
7.28912901028593e-02 1.49062469101573e+00 1.45987124492493e-03 
7.64469627908037e-02 1.48980409682703e+00 1.43995258050409e-03 
8.00026354787481e-02 1.48904658315373e+00 1.41168645051582e-03 
8.35583081666924e-02 1.48835462386788e+00 1.37507385167047e-03 
8.71139808546368e-02 1.48772982683385e+00 1.33011395827035e-03 
9.06696535425811e-02 1.48717293449619e+00 1.27680506009657e-03 
9.42253262305255e-02 1.48668382378797e+00 1.21514588928585e-03 
9.77809989184698e-02 1.48626150541738e+00 1.14513756072053e-03 
1.01336671606414e-01 1.48590412260792e+00 1.09024017181515e-03 
1.04892344294359e-01 1.48557900469067e+00 1.05894779187629e-03 
1.08448016982303e-01 1.48528201972682e+00 1.02683967850096e-03 
1.12003689670247e-01 1.48501325466741e+00 9.90307379618131e-04 
1.15559362358192e-01 1.48477255403950e+00 9.49351601759840e-04 
1.19115035046136e-01 1.48455951987146e+00 9.07563081190469e-04 
1.22670707734080e-01 1.48437024838327e+00 8.76775413708752e-04 
1.26226380422025e-01 1.48419479292511e+00 8.54963831583897e-04 
1.29782053109969e-01 1.48403321422831e+00 8.30507404446579e-04 
1.33337725797913e-01 1.48388548655442e+00 8.03406539352305e-04 
1.36893398485858e-01 1.48375149769317e+00 7.73661798231084e-04 
1.40449071173802e-01 1.48363104894904e+00 7.41274024595493e-04 
1.44004743861747e-01 1.48352385511716e+00 7.06244520921905e-04 
1.47560416549691e-01 1.48342954444994e+00 6.68575304686676e-04 
1.51116089237635e-01 1.48334765861549e+00 6.36589865310227e-04 
1.54671761925580e-01 1.48327348395374e+00 6.13725896300019e-04 
1.58227434613524e-01 1.48320593411741e+00 5.91304693713081e-04 
1.61783107301468e-01 1.48314489080091e+00 5.67248828059282e-04 
1.65338779989413e-01 1.48309020263534e+00 5.41559189622295e-04 
1.68894452677357e-01 1.48304168518109e+00 5.15833894588772e-04 
1.72450125365301e-01 1.48299853821729e+00 4.97435932432089e-04 
1.76005798053246e-01 1.48295816263587e+00 4.85622747980640e-04 
1.79561470741190e-01 1.48292054522413e+00 4.72920190136164e-04 
1.83117143429134e-01 1.48288566301636e+00 4.59328419639949e-04 
1.86672816117079e-01 1.48285348329362e+00 4.44847635944010e-04 
1.90228488805023e-01 1.48282396358330e+00 4.29478091490867e-04 
1.93784161492968e-01 1.48279705165842e+00 4.13220110718203e-04 
1.97339834180912e-01 1.48277268553674e+00 3.96074115810645e-04 
2.00895506868856e-01 1.48275079347973e+00 3.86089988095643e-04 
2.04451179556801e-01 1.48272948671532e+00 3.86906274835438e-04 
2.08006852244745e-01 1.48270816645059e+00 3.90334345751064e-04 
2.11562524932689e-01 1.48268684203261e+00 3.93649668747930e-04 
2.15118197620634e-01 1.48266552265208e+00 3.96852251341901e-04 
2.18673870308578e-01 1.48264421734329e+00 3.99942101052767e-04 
2.22229542996522e-01 1.48262293498416e+00 4.02919225393899e-04 
2.25785215684467e-01 1.48260168429625e+00 4.05783631857110e-04 
2.29340888372411e-01 1.48258047384477e+00 4.08535327909557e-04 
2.32896561060355e-01 1.48255931203861e+00 4.11174320986154e-04 
2.36452233748300e-01 1.48253820713035e+00 4.13700618492472e-04 
2.40007906436244e-01 1.48251716721624e+00 4.16114227777002e-04 
2.43563579124189e-01 1.48249620023628e+00 4.18415156146286e-04 
2.47119251812133e-01 1.48247531397418e+00 4.20603410880885e-04 
2.50674924500077e-01 1.48245451605742e+00 4.31330143889240e-04 
2.54230597188022e-01 1.48243211837168e+00 4.54585198764182e-04 
2.57786269875966e-01 1.48240722623697e+00 4.82014210281698e-04 
2.61341942563910e-01 1.48237967808720e+00 5.10022867619374e-04 
2.64897615251855e-01 1.48234930823523e+00 5.38610751822509e-04 
2.68453287939799e-01 1.48231594687754e+00 5.67777429280847e-04 
2.72008960627743e-01 1.48227942009933e+00 5.97522448438786e-04 
2.75564633315688e-01 1.48223954988001e+00 6.27845336945326e-04 
2.79120306003632e-01 1.48219615409909e+00 6.58745599086852e-04 
2.82675978691577e-01 1.48214904654246e+00 6.90222713497322e-04 
2.86231651379521e-01 1.48209803690923e+00 7.22276131055649e-04 
2.89787324067465e-01 1.48204293081892e+00 7.54905272905706e-04 
2.93342996755410e-01 1.48198352981921e+00 7.88109528582728e-04 
2.96898669443354e-01 1.48191963139420e+00 8.21888254214460e-04 
3.00454342131298e-01 1.48185102897316e+00 8.58834305683165e-04 
3.04010014819243e-01 1.48177666704547e+00 9.00377491380431e-04 
3.07565687507187e-01 1.48169573188519e+00 9.44080834851579e-04 
3.11121360195131e-01 1.48160788162508e+00 9.88539758583724e-04 
3.14677032883076e-01 1.48151276737586e+00 1.03375286642477e-03 
3.18232705571020e-01 1.48141003325063e+00 1.07971868427499e-03 
3.21788378258964e-01 1.48129931639103e+00 1.12643565601485e-03 
3.25344050946909e-01 1.48118024699498e+00 1.17390213954537e-03 
3.28899723634853e-01 1.48105244834627e+00 1.22211640292725e-03 
3.32455396322798e-01 1.48091553684583e+00 1.27107662059330e-03 
3.36011069010742e-01 1.48076912204499e+00 1.32078086960353e-03 
3.39566741698686e-01 1.48061280668055e+00 1.37122712593308e-03 
3.43122414386631e-01 1.48044618671199e+00 1.42241326077871e-03 
3.46678087074575e-01 1.48026885136067e+00 1.47433703688679e-03 
3.50233759762519e-01 1.48008038315118e+00 1.52874895648446e-03 
3.53789432450464e-01 1.47987947989409e+00 1.58693414093872e-03 
3.57345105138408e-01 1.47966494836875e+00 1.64721534528214e-03 
3.60900777826352e-01 1.47943623636247e+00 1.70833891115000e-03 
3.64456450514297e-01 1.47919278291499e+00 1.77030118917690e-03 
3.68012123202241e-01 1.47893401839598e+00 1.83309834941156e-03 
3.71567795890185e-01 1.47865936458669e+00 1.89672637567843e-03 
3.75123468578130e-01 1.47836823476572e+00 1.96118105995634e-03 
3.78679141266074e-01 1.47806003379920e+00 2.02645799672956e-03 
3.82234813954019e-01 1.47773415823528e+00 2.09255257734775e-03 
3.85790486641963e-01 1.47738999640336e+00 2.15945998437882e-03 
3.89346159329907e-01 1.47702692851789e+00 2.22717518596949e-03 
3.92901832017852e-01 1.47664432678703e+00 2.29569293019053e-03 
3.96457504705796e-01 1.47624155552625e+00 2.36500773938075e-03 
4.00013177393740e-01 1.47581797127703e+00 2.43443752654586e-03 
4.03568850081685e-01 1.47537339983609e+00 2.50332706494352e-03 
4.07124522769629e-01 1.47490769247750e+00 2.57232456674131e-03 
4.10680195457573e-01 1.47442023696842e+00 2.64205415090319e-03 
4.14235868145518e-01 1.47391041459408e+00 2.71250968610778e-03 
4.17791540833462e-01 1.47337760028534e+00 2.78368481016246e-03 
4.21347213521406e-01 1.47282116275112e+00 2.85557292515375e-03 
4.24902886209351e-01 1.47224046461588e+00 2.92816719263303e-03 
4.28458558897295e-01 1.47163486256218e+00 3.00146052881199e-03 
4.32014231585240e-01 1.47100370747843e+00 3.07544559978827e-03 
4.35569904273184e-01 1.47034634461194e+00 3.15011481681516e-03 
4.39125576961128e-01 1.46966211372736e+00 3.22546033158379e-03 
4.42681249649073e-01 1.46895034927053e+00 3.30147403156020e-03 
4.46236922337017e-01 1.46821038053802e+00 3.37814753537451e-03 
4.49792595024961e-01 1.46744153185215e+00 3.45547218823645e-03 
4.53348267712906e-01 1.46664312274187e+00 3.53343905742656e-03 
4.56903940400850e-01 1.46581446812937e+00 3.61203892784151e-03 
4.60459613088794e-01 1.46495487852262e+00 3.69126229759636e-03 
4.64015285776739e-01 1.46406366021385e+00 3.77109937370528e-03 
4.67570958464683e-01 1.46314011548408e+00 3.85154006783525e-03 
4.71126631152627e-01 1.46218354281375e+00 3.93257399214490e-03 
4.74682303840572e-01 1.46119323709952e+00 4.01419045520238e-03 
4.78237976528516e-01 1.46016848987730e+00 4.09637845800412e-03 
4.81793649216461e-01 1.45910858955157e+00 4.17912669008962e-03 
4.85349321904405e-01 1.45801282163111e+00 4.26242352575748e-03 
4.88904994592349e-01 1.45688046897102e+00 4.34625702039645e-03 
4.92460667280294e-01 1.45571081202126e+00 4.43061490693553e-03 
4.96016339968238e-01 1.45450312908170e+00 4.51548459241367e-03 
4.99572012656182e-01 1.45325669656361e+00 4.60054687227928e-03 
5.03127685344127e-01 1.45197112564256e+00 4.68529205615665e-03 
5.06683358032071e-01 1.45064626133454e+00 4.77001140498045e-03 
5.10239030720015e-01 1.44928140748470e+00 4.85517485175025e-03 
5.13794703407960e-01 1.44787586726914e+00 4.94076871660796e-03 
5.17350376095904e-01 1.44642894347037e+00 5.02677899602382e-03 
5.20906048783848e-01 1.44493993875891e+00 5.11319136060224e-03 
5.24461721471793e-01 1.44340815598098e+00 5.19999115304909e-03 
5.28017394159737e-01 1.44183289845218e+00 5.28716338631125e-03 
5.31573066847682e-01 1.44021347025738e+00 5.37469274189381e-03 
5.35128739535626e-01 1.43854917655653e+00 5.46256356835309e-03 
5.38684412223570e-01 1.43683932389660e+00 5.55075987998475e-03 
5.42240084911515e-01 1.43508322052944e+00 5.63926535570703e-03 
5.45795757599459e-01 1.43328017673560e+00 5.72806333814198e-03 
5.49351430287403e-01 1.43142950515414e+00 5.81713683290999e-03 
5.52907102975348e-01 1.42953052111814e+00 5.90646850813433e-03 
5.56462775663292e-01 1.42758254299618e+00 5.99604069417147e-03 
5.60018448351236e-01 1.42558489253945e+00 6.08583538356953e-03 
5.63574121039181e-01 1.42353689523450e+00 6.17583423125712e-03 
5.67129793727125e-01 1.42143788066167e+00 6.26601855497782e-03 
5.70685466415070e-01 1.41928718285887e+00 6.35636933597121e-03 
5.74241139103014e-01 1.41708414069084e+00 6.44686721990363e-03 
5.77796811790958e-01 1.41482809822371e+00 6.53749251806531e-03 
5.81352484478903e-01 1.41251840510460e+00 6.62822520883320e-03 
5.84908157166847e-01 1.41015441694643e+00 6.71904493940013e-03 
5.88463829854791e-01 1.40773549571752e+00 6.80993102778888e-03 
5.92019502542736e-01 1.40526101013603e+00 6.90086246514752e-03 
5.95575175230680e-01 1.40273033606902e+00 6.99181791833595e-03 
5.99130847918624e-01 1.40014285693595e+00 7.08277573281266e-03 
6.02686520606569e-01 1.39749796411651e+00 7.17371393581832e-03 
6.06242193294513e-01 1.39479505736258e+00 7.26461023986673e-03 
6.09797865982457e-01 1.39203354521415e+00 7.35544204655133e-03 
6.13353538670402e-01 1.38921284541891e+00 7.44618645066623e-03 
6.16909211358346e-01 1.38633238535553e+00 7.53682024465375e-03 
6.20464884046291e-01 1.38339160246013e+00 7.62731992337854e-03 
6.24020556734235e-01 1.38038994465594e+00 7.71766168922731e-03 
6.27576229422179e-01 1.37732687078587e+00 7.80782145755373e-03 
6.31131902110124e-01 1.37420185104761e+00 7.89777486246108e-03 
6.34687574798068e-01 1.37101436743126e+00 7.98749726292564e-03 
6.38243247486012e-01 1.36776391415898e+00 8.07696374926987e-03 
6.41798920173957e-01 1.36444999812655e+00 8.16614914998740e-03 
6.45354592861901e-01 1.36107213934652e+00 8.25502803892385e-03 
6.48910265549845e-01 1.35762987139258e+00 8.34357474281404e-03 
6.52465938237790e-01 1.35412274184507e+00 8.43176334917413e-03 
6.56021610925734e-01 1.35055031273700e+00 8.51956771456025e-03 
6.59577283613679e-01 1.34691216100056e+00 8.60696147318995e-03 
6.63132956301623e-01 1.34320787891365e+00 8.69391804592528e-03 
6.66688628989567e-01 1.33943707454609e+00 8.78041064962570e-03 
6.70244301677512e-01 1.33559937220519e+00 8.86641230686495e-03 
6.73799974365456e-01 1.33169441288041e+00 8.95189585601713e-03 
6.77355647053400e-01 1.32772185468655e+00 9.03683396170679e-03 
6.80911319741345e-01 1.32368137330529e+00 9.12119912562616e-03 
6.84466992429289e-01 1.31957266242464e+00 9.20496369771962e-03 
6.88022665117233e-01 1.31539543417586e+00 9.28809988773119e-03 
6.91578337805178e-01 1.31114941956751e+00 9.37057977711297e-03 
6.95134010493122e-01 1.30683436891626e+00 9.45237533129599e-03 
6.98689683181066e-01 1.30245005227393e+00 9.53341705400097e-03 
7.02245355869011e-01 1.29799633833771e+00 9.61340450893840e-03 
7.05801028556955e-01 1.29347356132558e+00 9.69235674243068e-03 
7.09356701244899e-01 1.28888156005093e+00 9.77051644182684e-03 
7.12912373932844e-01 1.28422019440102e+00 9.84785561086250e-03 
7.16468046620788e-01 1.27948934572863e+00 9.92434622092793e-03 
7.20023719308733e-01 1.27468891723749e+00 9.99996022543565e-03 
7.23579391996677e-01 1.26981883436104e+00 1.00746695745024e-02 
7.27135064684621e-01 1.26487904513426e+00 1.01484462299370e-02 
7.30690737372566e-01 1.25986952055778e+00 1.02212621805309e-02 
7.34246410060510e-01 1.25479025495422e+00 1.02930894576387e-02 
7.37802082748454e-01 1.24964126631599e+00 1.03639001510452e-02 
7.41357755436399e-01 1.24442259664427e+00 1.04336664251071e-02 
7.44913428124343e-01 1.23913431227864e+00 1.05023605351639e-02 
7.48469100812287e-01 1.23377650421691e+00 1.05699548442023e-02 
7.52024773500232e-01 1.22834928842477e+00 1.06364218397688e-02 
7.55580446188176e-01 1.22285280613464e+00 1.07017341511168e-02 
7.59136118876121e-01 1.21728722413340e+00 1.07658645665793e-02 
7.62691791564065e-01 1.21165273503852e+00 1.08287860511534e-02 
7.66247464252009e-01 1.20594955756205e+00 1.08904717642789e-02 
7.69803136939954e-01 1.20017793676212e+00 1.09508950778154e-02 
7.73358809627898e-01 1.19433814428141e+00 1.10100295941823e-02 
7.76914482315842e-01 1.18843047857221e+00 1.10678491646588e-02 
7.80470155003787e-01 1.18245526510758e+00 1.11243279078330e-02 
7.84025827691731e-01 1.17641285657816e+00 1.11794402281756e-02 
7.87581500379675e-01 1.17030363307427e+00 1.12331608347285e-02 
7.91137173067620e-01 1.16412800225273e+00 1.12854647598913e-02 
7.94692845755564e-01 1.15788639948816e+00 1.13363273782870e-02 
7.98248518443508e-01 1.15157928800817e+00 1.13857244256930e-02 
8.01804191131453e-01 1.14520715901215e+00 1.14336320180177e-02 
8.05359863819397e-01 1.13877053177315e+00 1.14800266703031e-02 
8.08915536507341e-01 1.13226995372263e+00 1.15248853157406e-02 
8.12471209195286e-01 1.12570600051752e+00 1.15681853246759e-02 
8.16026881883230e-01 1.11907927608928e+00 1.16099045235832e-02 
8.19582554571175e-01 1.11239041267472e+00 1.16500212139934e-02 
8.23138227259119e-01 1.10564007082802e+00 1.16885141913545e-02 
8.26693899947063e-01 1.09882893941378e+00 1.17253627638032e-02 
8.30249572635008e-01 1.09195773558077e+00 1.17605467708266e-02 
8.33805245322952e-01 1.08502720471596e+00 1.17940466017941e-02 
8.37360918010896e-01 1.07803812037868e+00 1.18258432143379e-02 
8.40916590698841e-01 1.07099128421459e+00 1.18559181525632e-02 
8.44472263386785e-01 1.06388752584909e+00 1.18842535650586e-02 
8.48027936074729e-01 1.05672770276018e+00 1.19108322226941e-02 
8.51583608762674e-01 1.04951270013029e+00 1.19356375361817e-02 
8.55139281450618e-01 1.04224343067707e+00 1.19586535733720e-02 
8.58694954138563e-01 1.03492083446278e+00 1.19798650762700e-02 
8.62250626826507e-01 1.02754587868233e+00 1.19992574777439e-02 
8.65806299514451e-01 1.02011955742966e+00 1.20168169179082e-02 
8.69361972202396e-01 1.01264289144237e+00 1.20325302601560e-02 
8.72917644890340e-01 1.00511692782460e+00 1.20463851068179e-02 
8.76473317578284e-01 9.97542739747940e-01 1.20583698144276e-02 
8.80028990266229e-01 9.89921426130438e-01 1.20684735085682e-02 
8.83584662954173e-01 9.82254111293603e-01 1.20766860982809e-02 
8.87140335642117e-01 9.74541944597437e-01 1.20829982900123e-02 
8.90696008330062e-01 9.66786100053494e-01 1.20874016010776e-02 
8.94251681018006e-01 9.58987775916025e-01 1.20898883726188e-02 
8.97807353705950e-01 9.51148194251268e-01 1.20904517820393e-02 
9.01363026393895e-01 9.43268600484988e-01 1.20890858548897e-02 
9.04918699081839e-01 9.35350262928378e-01 1.20857854761868e-02 
9.08474371769784e-01 9.27394472282486e-01 1.20805464011439e-02 
9.12030044457728e-01 9.19402541121322e-01 1.20733652652941e-02 
9.15585717145672e-01 9.11375803353868e-01 1.20642395939882e-02 
9.19141389833617e-01 9.03315613665204e-01 1.20531678112448e-02 
9.22697062521561e-01 8.95223346937012e-01 1.20401492479365e-02 
9.26252735209505e-01 8.87100397647751e-01 1.20251841492960e-02 
9.29808407897450e-01 8.78948179252798e-01 1.20082736817212e-02 
9.33364080585394e-01 8.70768123544904e-01 1.19894199388669e-02 
9.36919753273338e-01 8.62561679995337e-01 1.19686259470038e-02 
9.40475425961283e-01 8.54330315076088e-01 1.19458956696328e-02 
9.44031098649227e-01 8.46075511563582e-01 1.19212340113374e-02 
9.47586771337172e-01 8.37798767824329e-01 1.18946468208629e-02 
9.51142444025116e-01 8.29501597082996e-01 1.18661408934089e-02 
9.54698116713060e-01 8.21185526673401e-01 1.18357239721243e-02 
9.58253789401005e-01 8.12852097272955e-01 1.18034047487924e-02 
9.61809462088949e-01 8.04502862121123e-01 1.17691928636969e-02 
9.65365134776893e-01 7.96139386222451e-01 1.17330989046586e-02 
9.68920807464838e-01 7.87763245534807e-01 1.16951344052378e-02 
9.72476480152782e-01 7.79376026143434e-01 1.16553118420926e-02 
9.76032152840726e-01 7.70979323421490e-01 1.16136446314879e-02 
9.79587825528671e-01 7.62574741177735e-01 1.15701471249506e-02 
9.83143498216615e-01 7.54163890792094e-01 1.15248346040673e-02 
9.86699170904559e-01 7.45748390339789e-01 1.14777232744218e-02 
9.90254843592504e-01 7.37329863704811e-01 1.14288302586685e-02 
9.93810516280448e-01 7.28909939683486e-01 1.13781735887464e-02 
9.97366188968392e-01 7.20490251078920e-01 1.13257721972291e-02 
1.00092186165634e+00 7.12072433787143e-01 1.12686657960175e-02 
1.00447753434428e+00 7.03668056449245e-01 1.12060845776737e-02 
1.00803320703223e+00 6.95281640335876e-01 1.11412291009996e-02 
1.01158887972017e+00 6.86914495121014e-01 1.10751045627227e-02 
1.01514455240811e+00 6.78567924208323e-01 1.10077331802107e-02 
1.01870022509606e+00 6.70243224107881e-01 1.09391376747399e-02 
1.02225589778400e+00 6.61941683815409e-01 1.08693412589994e-02 
1.02581157047195e+00 6.53664584194504e-01 1.07983676241838e-02 
1.02936724315989e+00 6.45413197362400e-01 1.07262409266865e-02 
1.03292291584784e+00 6.37188786079773e-01 1.06529857744041e-02 
1.03647858853578e+00 6.28992603145095e-01 1.05786272126602e-02 
1.04003426122372e+00 6.20825890794063e-01 1.05031907097642e-02 
1.04358993391167e+00 6.12689880104604e-01 1.04267021422140e-02 
1.04714560659961e+00 6.04585790407972e-01 1.03491877795553e-02 
1.05070127928756e+00 5.96514828706436e-01 1.02706742689113e-02 
1.05425695197550e+00 5.88478189098061e-01 1.01911886191962e-02 
1.05781262466345e+00 5.80477052209085e-01 1.01107581850253e-02 
1.06136829735139e+00 5.72512584634373e-01 1.00294106503368e-02 
1.06492397003934e+00 5.64585938386446e-01 9.94717401173845e-03 
1.06847964272728e+00 5.56698250353552e-01 9.86407656159709e-03 
1.07203531541522e+00 5.48850641767254e-01 9.78014687088214e-03 
1.07559098810317e+00 5.41044217680008e-01 9.69541377178338e-03 
1.07914666079111e+00 5.33280066453175e-01 9.60990634011522e-03 
1.08270233347906e+00 5.25559259255921e-01 9.52365387752589e-03 
1.08625800616700e+00 5.17882849575435e-01 9.43668589352846e-03 
1.08981367885495e+00 5.10251872738907e-01 9.34903208736875e-03 
1.09336935154289e+00 5.02667345447661e-01 9.26072232974922e-03 
1.09692502423083e+00 4.95130265323869e-01 9.17178664442578e-03 
1.10048069691878e+00 4.87641610470229e-01 9.08225518969442e-03 
1.10403636960672e+00 4.80202339042982e-01 8.99215823978680e-03 
