Energy(eV)           EEDF(eV^-(3/2))      Anisotropy(eV^-(3/2))
8.89485042577286e-03 7.28708634379569e-02 1.52169188796293e-05 
2.66845512773186e-02 7.28678798209282e-02 3.52563080481411e-05 
4.44742521288643e-02 7.28636552096777e-02 6.55820786237774e-05 
6.22639529804100e-02 7.28587895764718e-02 9.58584090130131e-05 
8.00536538319557e-02 7.28542736840839e-02 1.26062577106623e-04 
9.78433546835014e-02 7.28502369992838e-02 1.54312786958369e-04 
1.15633055535047e-01 7.28470210092944e-02 1.82132227318516e-04 
1.33422756386593e-01 7.28443757938129e-02 2.08386208330878e-04 
1.51212457238139e-01 7.28421953191875e-02 2.32996163713018e-04 
1.69002158089684e-01 7.28404769112568e-02 2.56721592092595e-04 
1.86791858941230e-01 7.28390789081054e-02 2.79063158895966e-04 
2.04581559792776e-01 7.28379214740452e-02 3.00797534767067e-04 
2.22371260644321e-01 7.28368107401072e-02 3.20806676484312e-04 
2.40160961495867e-01 7.28356824455364e-02 3.39291895710389e-04 
2.57950662347413e-01 7.28345462540941e-02 3.57712905275968e-04 
2.75740363198959e-01 7.28330854234598e-02 3.73846126543728e-04 
2.93530064050504e-01 7.28312612380709e-02 3.88930325995557e-04 
3.11319764902050e-01 7.28290410515144e-02 4.03112585067785e-04 
3.29109465753596e-01 7.28263171919543e-02 4.16182804670991e-04 
3.46899166605141e-01 7.28230686916799e-02 4.28341119557996e-04 
3.64688867456687e-01 7.28192539222576e-02 4.39610179903871e-04 
3.82478568308233e-01 7.28148063740433e-02 4.49972905589030e-04 
4.00268269159778e-01 7.28097095704889e-02 4.59487573043237e-04 
4.18057970011324e-01 7.28039649957712e-02 4.68192524079861e-04 
4.35847670862870e-01 7.27975766141092e-02 4.76125078594697e-04 
4.53637371714416e-01 7.27905365602355e-02 4.83314122430301e-04 
4.71427072565961e-01 7.27828390538109e-02 4.89792700423750e-04 
4.89216773417507e-01 7.27744802522709e-02 4.95593493681084e-04 
5.07006474269053e-01 7.27654581081598e-02 5.00744345864438e-04 
5.24796175120599e-01 7.27557866237189e-02 5.05280296939992e-04 
5.42585875972144e-01 7.27454689175528e-02 5.09232590859208e-04 
5.60375576823690e-01 7.27345077598927e-02 5.12631461779638e-04 
5.78165277675236e-01 7.27229071455976e-02 5.15506309001675e-04 
5.95954978526781e-01 7.27106721805537e-02 5.17885716459556e-04 
6.13744679378327e-01 7.26978089730726e-02 5.19797431947991e-04 
6.31534380229873e-01 7.26843245304167e-02 5.21268349466972e-04 
6.49324081081418e-01 7.26702266604358e-02 5.22324496808926e-04 
6.67113781932964e-01 7.26555238782781e-02 5.22991027714458e-04 
6.84903482784510e-01 7.26402253181153e-02 5.23292218871843e-04 
7.02693183636056e-01 7.26243406497583e-02 5.23250639989390e-04 
7.20482884487601e-01 7.26078836636077e-02 5.22888349306906e-04 
7.38272585339147e-01 7.25908668296872e-02 5.22227735899528e-04 
7.56062286190693e-01 7.25733009637283e-02 5.21290022018203e-04 
7.73851987042238e-01 7.25551971232720e-02 5.20095143497863e-04 
7.91641687893784e-01 7.25365665484537e-02 5.18662193491573e-04 
8.09431388745330e-01 7.25174206068129e-02 5.17009438621134e-04 
8.27221089596876e-01 7.24977707421537e-02 5.15154334031172e-04 
8.45010790448421e-01 7.24776284273016e-02 5.13113541859910e-04 
8.62800491299967e-01 7.24570051204404e-02 5.10902949646153e-04 
8.80590192151513e-01 7.24359122251067e-02 5.08537683528539e-04 
8.98379893003058e-01 7.24143610539568e-02 5.06032124663398e-04 
9.16169593854604e-01 7.23923627957404e-02 5.03399935125415e-04 
9.33959294706150e-01 7.23699284849927e-02 5.00654080047691e-04 
9.51748995557696e-01 7.23470689749302e-02 4.97806842859073e-04 
9.69538696409241e-01 7.23237949134125e-02 4.94869846291131e-04 
9.87328397260787e-01 7.23001167213583e-02 4.91854077025685e-04 
1.00511809811233e+00 7.22760445735966e-02 4.88743937869646e-04 
1.02290779896388e+00 7.22516725602743e-02 4.85536413544880e-04 
1.04069749981542e+00 7.22270320280678e-02 4.82268876903130e-04 
1.05848720066697e+00 7.22021312093159e-02 4.78958153802175e-04 
1.07627690151852e+00 7.21769780201843e-02 4.75612384397640e-04 
1.09406660237006e+00 7.21515800584954e-02 4.72239201904448e-04 
1.11185630322161e+00 7.21259446027101e-02 4.68845755858825e-04 
1.12964600407315e+00 7.21000786117148e-02 4.65438731963913e-04 
1.14743570492470e+00 7.20739887258941e-02 4.62024367853057e-04 
1.16522540577624e+00 7.20476812692593e-02 4.58608474000437e-04 
1.18301510662779e+00 7.20211622521008e-02 4.55196685050261e-04 
1.20080480747934e+00 7.19944373475215e-02 4.51808172783300e-04 
1.21859450833088e+00 7.19674789387588e-02 4.48462111743797e-04 
1.23638420918243e+00 7.19402650233808e-02 4.45150202966433e-04 
1.25417391003397e+00 7.19128008962124e-02 4.41863683070691e-04 
1.27196361088552e+00 7.18850915702526e-02 4.38605758854305e-04 
1.28975331173706e+00 7.18571417784009e-02 4.35379453334062e-04 
1.30754301258861e+00 7.18289559693263e-02 4.32163294331825e-04 
1.32533271344016e+00 7.18005922785682e-02 4.28954850298067e-04 
1.34312241429170e+00 7.17720584305807e-02 4.25782541163595e-04 
1.36091211514325e+00 7.17433574447920e-02 4.22650571564213e-04 
1.37870181599479e+00 7.17144921035708e-02 4.19560853201092e-04 
1.39649151684634e+00 7.16854649470964e-02 4.16515398983453e-04 
1.41428121769788e+00 7.16562782507288e-02 4.13516122852214e-04 
1.43207091854943e+00 7.16269340473118e-02 4.10564433818772e-04 
1.44986061940098e+00 7.15974341636079e-02 4.07661592029807e-04 
1.46765032025252e+00 7.15677801954300e-02 4.04809479288034e-04 
1.48544002110407e+00 7.15379734322230e-02 4.02010034475537e-04 
1.50322972195561e+00 7.15080149105947e-02 3.99222144658238e-04 
1.52101942280716e+00 7.14779810293771e-02 3.96422448077549e-04 
1.53880912365870e+00 7.14479069727745e-02 3.93653139285644e-04 
1.55659882451025e+00 7.14177923670983e-02 3.90935061489686e-04 
1.57438852536180e+00 7.13876367314525e-02 3.88268320090459e-04 
1.59217822621334e+00 7.13574394803075e-02 3.85652983323782e-04 
1.60996792706489e+00 7.13271999262147e-02 3.83089081505122e-04 
1.62775762791643e+00 7.12969172827354e-02 3.80576606048451e-04 
1.64554732876798e+00 7.12665906675530e-02 3.78115509012503e-04 
1.66333702961952e+00 7.12362191057223e-02 3.75705703157909e-04 
1.68112673047107e+00 7.12058015330224e-02 3.73347062401318e-04 
1.69891643132262e+00 7.11753367993817e-02 3.71039422646912e-04 
1.71670613217416e+00 7.11448236723418e-02 3.68782582875495e-04 
1.73449583302571e+00 7.11142608405432e-02 3.66576306370725e-04 
1.75228553387725e+00 7.10836469172194e-02 3.64420322176979e-04 
1.77007523472880e+00 7.10529804436648e-02 3.62314326840912e-04 
1.78786493558034e+00 7.10222598926513e-02 3.60257986223850e-04 
1.80565463643189e+00 7.09914836717932e-02 3.58250937279530e-04 
1.82344433728344e+00 7.09606501268534e-02 3.56292789855355e-04 
1.84123403813498e+00 7.09297575449803e-02 3.54383128507452e-04 
1.85902373898653e+00 7.08988041578692e-02 3.52521514328283e-04 
1.87681343983807e+00 7.08677881448387e-02 3.50707486788148e-04 
1.89460314068962e+00 7.08367076358156e-02 3.48959821950893e-04 
1.91239284154116e+00 7.08055354647888e-02 3.47358396973913e-04 
1.93018254239271e+00 7.07741667406437e-02 3.45886225676519e-04 
1.94797224324426e+00 7.07425998149927e-02 3.44463024633362e-04 
1.96576194409580e+00 7.07108329490837e-02 3.43088240890136e-04 
1.98355164494735e+00 7.06788643170034e-02 3.41761310361619e-04 
2.00134134579889e+00 7.06466920087824e-02 3.40481659410625e-04 
2.01913104665044e+00 7.06143140334052e-02 3.39248706321127e-04 
2.03692074750198e+00 7.05817283217242e-02 3.38061862705517e-04 
2.05471044835353e+00 7.05489327292750e-02 3.36920534860018e-04 
2.07250014920508e+00 7.05159250389888e-02 3.35824125073590e-04 
2.09028985005662e+00 7.04827029638005e-02 3.34772032835191e-04 
2.10807955090817e+00 7.04492641491592e-02 3.33659500961746e-04 
2.12586925175971e+00 7.04157283339385e-02 3.32478445151437e-04 
2.14365895261126e+00 7.03820989197278e-02 3.31331557063806e-04 
2.16144865346280e+00 7.03483734248376e-02 3.30223261701542e-04 
2.17923835431435e+00 7.03145493536171e-02 3.29152973449216e-04 
2.19702805516590e+00 7.02806241976739e-02 3.28145305488572e-04 
2.21481775601744e+00 7.02465670621358e-02 3.27251158175719e-04 
2.23260745686899e+00 7.02123185135273e-02 3.26445907702520e-04 
2.25039715772053e+00 7.01778759162070e-02 3.25678551360294e-04 
2.26818685857208e+00 7.01432365986784e-02 3.24948516638767e-04 
2.28597655942362e+00 7.01083978549445e-02 3.24255236808372e-04 
2.30376626027517e+00 7.00733569457904e-02 3.23598151548588e-04 
2.32155596112672e+00 7.00381110999525e-02 3.22976707269224e-04 
2.33934566197826e+00 7.00026575152763e-02 3.22390357060920e-04 
2.35713536282981e+00 6.99669933598399e-02 3.21838561074075e-04 
2.37492506368135e+00 6.99311157729708e-02 3.21320786865504e-04 
2.39271476453290e+00 6.98950218662312e-02 3.20836506479400e-04 
2.41050446538444e+00 6.98587087250317e-02 3.20385197918043e-04 
2.42829416623599e+00 6.98221734092437e-02 3.19966351669546e-04 
2.44608386708754e+00 6.97854129532674e-02 3.19579469237327e-04 
2.46387356793908e+00 6.97484243668777e-02 3.19224055683267e-04 
2.48166326879063e+00 6.97112046369318e-02 3.18899621412627e-04 
2.49945296964217e+00 6.96737507277676e-02 3.18645948925359e-04 
2.51724267049372e+00 6.96360183930168e-02 3.18508750588159e-04 
2.53503237134526e+00 6.95979575880577e-02 3.18448239085363e-04 
2.55282207219681e+00 6.95595646816568e-02 3.18418954653101e-04 
2.57061177304836e+00 6.95208359983161e-02 3.18420442601956e-04 
2.58840147389990e+00 6.94817678193292e-02 3.18452255463116e-04 
2.60619117475145e+00 6.94423563838006e-02 3.18513952964028e-04 
2.62398087560299e+00 6.94025978896314e-02 3.18605101986852e-04 
2.64177057645454e+00 6.93624884944730e-02 3.18725276513309e-04 
2.65956027730608e+00 6.93220243166506e-02 3.18874057555125e-04 
2.67734997815763e+00 6.92812014360596e-02 3.19051033070050e-04 
2.69513967900918e+00 6.92400158950359e-02 3.19255797866146e-04 
2.71292937986072e+00 6.91984636992037e-02 3.19487953498572e-04 
2.73071908071227e+00 6.91565408183004e-02 3.19747108158649e-04 
2.74850878156381e+00 6.91142431869818e-02 3.20032876552358e-04 
2.76629848241536e+00 6.90715667056088e-02 3.20344879772005e-04 
2.78408818326690e+00 6.90285072410182e-02 3.20682745163905e-04 
2.80187788411845e+00 6.89850606272774e-02 3.21017224642552e-04 
2.81966758497000e+00 6.89412511202613e-02 3.21329041974870e-04 
2.83745728582154e+00 6.88970933493914e-02 3.21646118233048e-04 
2.85524698667309e+00 6.88525834650399e-02 3.21986647843823e-04 
2.87303668752463e+00 6.88077175970342e-02 3.22350295805737e-04 
2.89082638837618e+00 6.87624918551545e-02 3.22736732687260e-04 
2.90861608922772e+00 6.87169023296253e-02 3.23145634482568e-04 
2.92640579007927e+00 6.86709450916003e-02 3.23576682466877e-04 
2.94419549093082e+00 6.86246161936435e-02 3.24029563053100e-04 
2.96198519178236e+00 6.85779116702054e-02 3.24503967648422e-04 
2.97977489263391e+00 6.85308275380958e-02 3.24999592512167e-04 
2.99756459348545e+00 6.84833597969543e-02 3.25497760080526e-04 
3.01535429433700e+00 6.84355223370070e-02 3.25965793702691e-04 
3.03314399518854e+00 6.83873428304976e-02 3.26421432269312e-04 
3.05093369604009e+00 6.83388176603365e-02 3.26896191091923e-04 
3.06872339689163e+00 6.82899432014723e-02 3.27389797751472e-04 
3.08651309774318e+00 6.82407158211817e-02 3.27901984033105e-04 
3.10430279859473e+00 6.81911318793602e-02 3.28432485799018e-04 
3.12209249944627e+00 6.81411877288151e-02 3.28981042863464e-04 
3.13988220029782e+00 6.80908797155596e-02 3.29547398871402e-04 
3.15767190114936e+00 6.80402041791099e-02 3.30131301178909e-04 
3.17546160200091e+00 6.79891574527831e-02 3.30732500736261e-04 
3.19325130285246e+00 6.79377358639992e-02 3.31350751973541e-04 
3.21104100370400e+00 6.78859357345849e-02 3.31985812688854e-04 
3.22883070455555e+00 6.78337533810798e-02 3.32637443940468e-04 
3.24662040540709e+00 6.77811851150465e-02 3.33305409940570e-04 
3.26441010625864e+00 6.77282272433829e-02 3.33989477950681e-04 
3.28219980711018e+00 6.76748760686381e-02 3.34689418180007e-04 
3.29998950796173e+00 6.76211278893322e-02 3.35405003686607e-04 
3.31777920881327e+00 6.75669790002785e-02 3.36136010281642e-04 
3.33556890966482e+00 6.75124256929101e-02 3.36882216436094e-04 
3.35335861051637e+00 6.74574642556093e-02 3.37643403189337e-04 
3.37114831136791e+00 6.74020909740416e-02 3.38419354060070e-04 
3.38893801221946e+00 6.73463021314924e-02 3.39209854959453e-04 
3.40672771307100e+00 6.72900940092083e-02 3.40014694107485e-04 
3.42451741392255e+00 6.72334628867422e-02 3.40833661951272e-04 
3.44230711477410e+00 6.71764050423014e-02 3.41666551085650e-04 
3.46009681562564e+00 6.71189167531007e-02 3.42513156173855e-04 
3.47788651647719e+00 6.70609942957196e-02 3.43373273871889e-04 
3.49567621732873e+00 6.70026339464625e-02 3.44246702759065e-04 
3.51346591818028e+00 6.69438319817230e-02 3.45133243266633e-04 
3.53125561903182e+00 6.68845846783529e-02 3.46032697605985e-04 
3.54904531988337e+00 6.68248883140344e-02 3.46944869701054e-04 
3.56683502073491e+00 6.67647391676580e-02 3.47869565122985e-04 
3.58462472158646e+00 6.67041335197029e-02 3.48806591026501e-04 
3.60241442243801e+00 6.66430676526225e-02 3.49736978880184e-04 
3.62020412328955e+00 6.65815562143018e-02 3.50649795839492e-04 
3.63799382414110e+00 6.65196062324461e-02 3.51563364626938e-04 
3.65578352499264e+00 6.64572142622014e-02 3.52488136102466e-04 
3.67357322584419e+00 6.63943768638639e-02 3.53423930771317e-04 
3.69136292669574e+00 6.63310906032087e-02 3.54370570472731e-04 
3.70915262754728e+00 6.62673520518241e-02 3.55327878328175e-04 
3.72694232839883e+00 6.62031577874489e-02 3.56295678691173e-04 
3.74473202925037e+00 6.61385043943140e-02 3.57273797098724e-04 
3.76252173010192e+00 6.60733884634878e-02 3.58262060223710e-04 
3.78031143095346e+00 6.60078065932260e-02 3.59260295828751e-04 
3.79810113180501e+00 6.59417553893243e-02 3.60268332721768e-04 
3.81589083265655e+00 6.58752314654765e-02 3.61286000712479e-04 
3.83368053350810e+00 6.58082314436348e-02 3.62313130569817e-04 
3.85147023435965e+00 6.57407519543753e-02 3.63349553981115e-04 
3.86925993521119e+00 6.56727896372665e-02 3.64395103512511e-04 
3.88704963606274e+00 6.56043411412421e-02 3.65449612569695e-04 
3.90483933691428e+00 6.55354031249772e-02 3.66512915360203e-04 
3.92262903776583e+00 6.54659722572686e-02 3.67584846857311e-04 
3.94041873861738e+00 6.53960452174184e-02 3.68665242764400e-04 
3.95820843946892e+00 6.53256186956220e-02 3.69753939480213e-04 
3.97599814032047e+00 6.52546893933589e-02 3.70850774065512e-04 
3.99378784117201e+00 6.51832540237879e-02 3.71964264364699e-04 
4.01157754202356e+00 6.51113006160478e-02 3.73143264371861e-04 
4.02936724287510e+00 6.50387766198021e-02 3.74378816758582e-04 
4.04715694372665e+00 6.49656782619398e-02 3.75622389817020e-04 
4.06494664457820e+00 6.48920017818497e-02 3.76873809287553e-04 
4.08273634542974e+00 6.48177434319824e-02 3.78132901195486e-04 
4.10052604628129e+00 6.47428994784169e-02 3.79399491823096e-04 
4.11831574713283e+00 6.46674662014315e-02 3.80673407681986e-04 
4.13610544798438e+00 6.45914398960784e-02 3.81954475487791e-04 
4.15389514883592e+00 6.45148168727633e-02 3.83242522134401e-04 
4.17168484968747e+00 6.44375934578285e-02 3.84537374669097e-04 
4.18947455053901e+00 6.43597659941404e-02 3.85838860269542e-04 
4.20726425139056e+00 6.42813308416813e-02 3.87146806220153e-04 
4.22505395224211e+00 6.42022843781447e-02 3.88461039890144e-04 
4.24284365309365e+00 6.41226229995353e-02 3.89781388712198e-04 
4.26063335394520e+00 6.40423431207728e-02 3.91107680160967e-04 
4.27842305479674e+00 6.39614411762995e-02 3.92439741733890e-04 
4.29621275564829e+00 6.38799136206920e-02 3.93777400931812e-04 
4.31400245649983e+00 6.37977569292764e-02 3.95120485239429e-04 
4.33179215735138e+00 6.37149675987487e-02 3.96468822108087e-04 
4.34958185820293e+00 6.36315421477969e-02 3.97822238938488e-04 
4.36737155905447e+00 6.35474771177287e-02 3.99180563063608e-04 
4.38516125990602e+00 6.34627690731021e-02 4.00543621733119e-04 
4.40295096075756e+00 6.33774146023598e-02 4.01911242097745e-04 
4.42074066160911e+00 6.32914103184669e-02 4.03283251194597e-04 
4.43853036246065e+00 6.32047528595531e-02 4.04659475932932e-04 
4.45632006331220e+00 6.31174388895575e-02 4.06039743080875e-04 
4.47410976416375e+00 6.30294650988770e-02 4.07423879252506e-04 
4.49189946501529e+00 6.29408282050184e-02 4.08807997014138e-04 
4.50968916586684e+00 6.28515288911185e-02 4.10112312494333e-04 
4.52747886671838e+00 6.27616485927018e-02 4.11340795987013e-04 
4.54526856756993e+00 6.26711848085624e-02 4.12572066700675e-04 
4.56305826842148e+00 6.25801350641103e-02 4.13805974141791e-04 
4.58084796927302e+00 6.24884969118193e-02 4.15042367861573e-04 
4.59863767012457e+00 6.23962679316778e-02 4.16281097446842e-04 
4.61642737097611e+00 6.23034457316405e-02 4.17522012510747e-04 
4.63421707182766e+00 6.22100279480832e-02 4.18764962684276e-04 
4.65200677267920e+00 6.21160122462582e-02 4.20009797607997e-04 
4.66979647353075e+00 6.20213963207522e-02 4.21256366924496e-04 
4.68758617438229e+00 6.19261778959454e-02 4.22504520270928e-04 
4.70537587523384e+00 6.18303547264730e-02 4.23754107272123e-04 
4.72316557608539e+00 6.17339245976868e-02 4.25004977534368e-04 
4.74095527693693e+00 6.16368853261199e-02 4.26256980639361e-04 
4.75874497778848e+00 6.15392347599518e-02 4.27509966138612e-04 
4.77653467864002e+00 6.14409707794750e-02 4.28763783548225e-04 
4.79432437949157e+00 6.13420912975629e-02 4.30018282344201e-04 
4.81211408034311e+00 6.12425942601393e-02 4.31273311957991e-04 
4.82990378119466e+00 6.11424776466484e-02 4.32528721772637e-04 
4.84769348204621e+00 6.10417394705261e-02 4.33784361119218e-04 
4.86548318289775e+00 6.09403777796724e-02 4.35040079273422e-04 
4.88327288374930e+00 6.08383906569250e-02 4.36295725452958e-04 
4.90106258460084e+00 6.07357762205327e-02 4.37551148815171e-04 
4.91885228545239e+00 6.06325326246306e-02 4.38806198454661e-04 
4.93664198630393e+00 6.05286580597155e-02 4.40060723401853e-04 
4.95443168715548e+00 6.04241507531223e-02 4.41314572621696e-04 
4.97222138800703e+00 6.03190089695000e-02 4.42567595012525e-04 
4.99001108885857e+00 6.02132310112894e-02 4.43819639405485e-04 
5.00780078971012e+00 6.01068152192001e-02 4.45153408650052e-04 
5.02559049056166e+00 5.99996671028058e-02 4.46573591083990e-04 
5.04338019141321e+00 5.98917783715928e-02 4.47997757136748e-04 
5.06116989226475e+00 5.97831468520769e-02 4.49420331566814e-04 
5.07895959311630e+00 5.96737704185533e-02 4.50841134094009e-04 
5.09674929396785e+00 5.95636469938119e-02 4.52259984134006e-04 
5.11453899481939e+00 5.94527745498541e-02 4.53676700802735e-04 
5.13232869567094e+00 5.93411511086094e-02 4.55091102921354e-04 
5.15011839652248e+00 5.92287747426520e-02 4.56503009021360e-04 
5.16790809737403e+00 5.91156435759174e-02 4.57912237350202e-04 
5.18569779822557e+00 5.90017557844193e-02 4.59318605877181e-04 
5.20348749907712e+00 5.88871095969654e-02 4.60721932300108e-04 
5.22127719992867e+00 5.87717032958733e-02 4.62122034052103e-04 
5.23906690078021e+00 5.86555352176860e-02 4.63518728308783e-04 
5.25685660163176e+00 5.85386037538857e-02 4.64911831996278e-04 
5.27464630248330e+00 5.84209073516080e-02 4.66301161799278e-04 
5.29243600333485e+00 5.83024445143539e-02 4.67686534169343e-04 
5.31022570418639e+00 5.81832138027017e-02 4.69067765334183e-04 
5.32801540503794e+00 5.80632138350166e-02 4.70444671307001e-04 
5.34580510588949e+00 5.79424432881595e-02 4.71817067896240e-04 
5.36359480674103e+00 5.78209008981937e-02 4.73184770715889e-04 
5.38138450759258e+00 5.76985854610902e-02 4.74547595195944e-04 
5.39917420844412e+00 5.75754958334307e-02 4.75905356593414e-04 
5.41696390929567e+00 5.74516309331088e-02 4.77257870003847e-04 
5.43475361014722e+00 5.73269897400287e-02 4.78604950373243e-04 
5.45254331099876e+00 5.72015712968012e-02 4.79946412510007e-04 
5.47033301185031e+00 5.70753747094379e-02 4.81282071097696e-04 
5.48812271270185e+00 5.69483991480417e-02 4.82611740708181e-04 
5.50591241355340e+00 5.68206438474948e-02 4.83935235814938e-04 
5.52370211440494e+00 5.66921081081433e-02 4.85252370806670e-04 
