Energy(eV)           EEDF(eV^-(3/2))      Anisotropy(eV^-(3/2))
1.39298129520082e-03 2.52764381871528e+00 1.11233575284087e-03 
4.17894388560247e-03 2.52088410027584e+00 1.55826942285395e-03 
6.96490647600411e-03 2.51082591394404e+00 2.26490901318114e-03 
9.75086906640575e-03 2.49972023716728e+00 2.74728042981531e-03 
1.25368316568074e-02 2.48864733578117e+00 3.10867160855867e-03 
1.53227942472090e-02 2.47766898410337e+00 3.41870648990859e-03 
1.81087568376107e-02 2.46680263985636e+00 3.69157634450524e-03 
2.08947194280123e-02 2.45606601272792e+00 3.93833852985082e-03 
2.36806820184140e-02 2.44543097996469e+00 4.14891278617254e-03 
2.64666446088156e-02 2.43507073803568e+00 4.30033974715236e-03 
2.92526071992173e-02 2.42519836928975e+00 4.40248589150283e-03 
3.20385697896189e-02 2.41585026424793e+00 4.51647308478741e-03 
3.48245323800206e-02 2.40669046069708e+00 4.64056280930552e-03 
3.76104949704222e-02 2.39782380000467e+00 4.72560890319757e-03 
4.03964575608238e-02 2.38934172133039e+00 4.79780411479818e-03 
4.31824201512255e-02 2.38113855049559e+00 4.87713326521021e-03 
4.59683827416271e-02 2.37317419505976e+00 4.94280648324461e-03 
4.87543453320288e-02 2.36550313221888e+00 4.98150069297730e-03 
5.15403079224304e-02 2.35817081008553e+00 5.00086981881503e-03 
5.43262705128321e-02 2.35117507085613e+00 5.00179435292817e-03 
5.71122331032337e-02 2.34455143802144e+00 4.97742334268579e-03 
5.98981956936354e-02 2.33832993078059e+00 4.92780955889894e-03 
6.26841582840370e-02 2.33253515160556e+00 4.85295259700007e-03 
6.54701208744386e-02 2.32718635080006e+00 4.75280253934449e-03 
6.82560834648403e-02 2.32229746836324e+00 4.62726468423194e-03 
7.10420460552419e-02 2.31787715382666e+00 4.53224306759568e-03 
7.38280086456436e-02 2.31371132386891e+00 4.48528733095175e-03 
7.66139712360452e-02 2.30977876463573e+00 4.43141230720326e-03 
7.93999338264469e-02 2.30608834070951e+00 4.36226106162817e-03 
8.21858964168485e-02 2.30264696807131e+00 4.27781875195287e-03 
8.49718590072501e-02 2.29945962374420e+00 4.17805666948468e-03 
8.77578215976518e-02 2.29652935138755e+00 4.06293371504256e-03 
9.05437841880534e-02 2.29385726298904e+00 3.93239818905135e-03 
9.33297467784551e-02 2.29144253685703e+00 3.78638995713485e-03 
9.61157093688567e-02 2.28928241217330e+00 3.62484308576212e-03 
9.89016719592584e-02 2.28737218042716e+00 3.45428949073554e-03 
1.01687634549660e-01 2.28569096511888e+00 3.33427049842855e-03 
1.04473597140062e-01 2.28411574949553e+00 3.26694208257779e-03 
1.07259559730463e-01 2.28264741837733e+00 3.19139873358230e-03 
1.10045522320865e-01 2.28128630586877e+00 3.10763032696033e-03 
1.12831484911267e-01 2.28003219542545e+00 3.01562478347535e-03 
1.15617447501668e-01 2.27888431952038e+00 2.91536851437431e-03 
1.18403410092070e-01 2.27784135893608e+00 2.80684695614098e-03 
1.21189372682472e-01 2.27690144171321e+00 2.72290881706192e-03 
1.23975335272873e-01 2.27601747316617e+00 2.67060488825786e-03 
1.26761297863275e-01 2.27518610489881e+00 2.61609588492325e-03 
1.29547260453676e-01 2.27440742417262e+00 2.55665101834479e-03 
1.32333223044078e-01 2.27368132029350e+00 2.49226699891376e-03 
1.35119185634480e-01 2.27300748459245e+00 2.42294007222870e-03 
1.37905148224881e-01 2.27238541034004e+00 2.34866614853711e-03 
1.40691110815283e-01 2.27181439259883e+00 2.26944095713756e-03 
1.43477073405685e-01 2.27129352801856e+00 2.18526023336162e-03 
1.46263035996086e-01 2.27082171457935e+00 2.09611994956352e-03 
1.49048998586488e-01 2.27039765128892e+00 2.00588130027130e-03 
1.51834961176890e-01 2.27001665562851e+00 1.93621612520942e-03 
1.54620923767291e-01 2.26966104409960e+00 1.88571184025937e-03 
1.57406886357693e-01 2.26933054972182e+00 1.83213835184804e-03 
1.60192848948095e-01 2.26902482933654e+00 1.77549452693282e-03 
1.62978811538496e-01 2.26874346356595e+00 1.71577928410333e-03 
1.65764774128898e-01 2.26848595676257e+00 1.65299166904862e-03 
1.68550736719299e-01 2.26825173695016e+00 1.58713094952256e-03 
1.71336699309701e-01 2.26804015575710e+00 1.53879680459648e-03 
1.74122661900103e-01 2.26783932598814e+00 1.51076204127238e-03 
1.76908624490504e-01 2.26764898161437e+00 1.48150322027575e-03 
1.79694587080906e-01 2.26746907166290e+00 1.45057336173864e-03 
1.82480549671308e-01 2.26729952260645e+00 1.41797228147950e-03 
1.85266512261709e-01 2.26714023836149e+00 1.38369978865966e-03 
1.88052474852111e-01 2.26699110028493e+00 1.34775569680593e-03 
1.90838437442513e-01 2.26685196716962e+00 1.31013983693439e-03 
1.93624400032914e-01 2.26672267523856e+00 1.27085207345834e-03 
1.96410362623316e-01 2.26660303813807e+00 1.22989232362512e-03 
1.99196325213718e-01 2.26649284692983e+00 1.19262982258539e-03 
2.01982287804119e-01 2.26638992249021e+00 1.18037791090426e-03 
2.04768250394521e-01 2.26628692555006e+00 1.18880097062474e-03 
2.07554212984922e-01 2.26618388421376e+00 1.19701102426416e-03 
2.10340175575324e-01 2.26608082621834e+00 1.20500811622980e-03 
2.13126138165726e-01 2.26597777893355e+00 1.21279229095792e-03 
2.15912100756127e-01 2.26587476936200e+00 1.22036359286992e-03 
2.18698063346529e-01 2.26577182413921e+00 1.22772206636399e-03 
2.21484025936931e-01 2.26566896953376e+00 1.23486775577690e-03 
2.24269988527332e-01 2.26556623144737e+00 1.24180070533626e-03 
2.27055951117734e-01 2.26546363541502e+00 1.24852095914862e-03 
2.29841913708136e-01 2.26536120660509e+00 1.25502856120343e-03 
2.32627876298537e-01 2.26525896981940e+00 1.26132355531680e-03 
2.35413838888939e-01 2.26515694949341e+00 1.26740598508671e-03 
2.38199801479341e-01 2.26505516969625e+00 1.27327589390471e-03 
2.40985764069742e-01 2.26495365413093e+00 1.27893332492611e-03 
2.43771726660144e-01 2.26485242613439e+00 1.28437832103887e-03 
2.46557689250545e-01 2.26475150867762e+00 1.28961092483678e-03 
2.49343651840947e-01 2.26465092436584e+00 1.30244185511853e-03 
2.52129614431349e-01 2.26454827582816e+00 1.34542349205596e-03 
2.54915577021750e-01 2.26443654769583e+00 1.41030345761203e-03 
2.57701539612152e-01 2.26431527116703e+00 1.47625983815530e-03 
2.60487502202554e-01 2.26418396810914e+00 1.54329063999182e-03 
2.63273464792955e-01 2.26404215109074e+00 1.61139376442513e-03 
2.66059427383357e-01 2.26388932341570e+00 1.68056700207703e-03 
2.68845389973759e-01 2.26372497915931e+00 1.75080802748236e-03 
2.71631352564160e-01 2.26354860320670e+00 1.82211439387922e-03 
2.74417315154562e-01 2.26335967129342e+00 1.89448352810425e-03 
2.77203277744964e-01 2.26315765004845e+00 1.96791272559538e-03 
2.79989240335365e-01 2.26294199703962e+00 2.04239914541075e-03 
2.82775202925767e-01 2.26271216082152e+00 2.11793980536567e-03 
2.85561165516169e-01 2.26246758098600e+00 2.19453157719132e-03 
2.88347128106570e-01 2.26220768821540e+00 2.27217118167559e-03 
2.91133090696972e-01 2.26193190433845e+00 2.35085518387170e-03 
2.93919053287373e-01 2.26163964238911e+00 2.43057998827371e-03 
2.96705015877775e-01 2.26133030666824e+00 2.51134183399056e-03 
2.99490978468177e-01 2.26100329280837e+00 2.59623424389057e-03 
3.02276941058578e-01 2.26065640375273e+00 2.69187601076751e-03 
3.05062903648980e-01 2.26028537861672e+00 2.79508998593352e-03 
3.07848866239382e-01 2.25988923229618e+00 2.89965036681540e-03 
3.10634828829783e-01 2.25946696500249e+00 3.00554956170384e-03 
3.13420791420185e-01 2.25901756243033e+00 3.11277961634056e-03 
3.16206754010587e-01 2.25853999593395e+00 3.22133220324378e-03 
3.18992716600988e-01 2.25803322271231e+00 3.33119861105956e-03 
3.21778679191390e-01 2.25749618600320e+00 3.44236973399684e-03 
3.24564641781792e-01 2.25692781528667e+00 3.55483606129049e-03 
3.27350604372193e-01 2.25632702649799e+00 3.66858766671952e-03 
3.30136566962595e-01 2.25569272225033e+00 3.78361419819615e-03 
3.32922529552996e-01 2.25502379206741e+00 3.89990486738342e-03 
3.35708492143398e-01 2.25431911262647e+00 4.01744843936271e-03 
3.38494454733800e-01 2.25357754801155e+00 4.13623322235616e-03 
3.41280417324201e-01 2.25279794997762e+00 4.25624705753588e-03 
3.44066379914603e-01 2.25197915822543e+00 4.37747730888249e-03 
3.46852342505005e-01 2.25112000068767e+00 4.49991085311425e-03 
3.49638305095406e-01 2.25021929382637e+00 4.62622827910542e-03 
3.52424267685808e-01 2.24927371295396e+00 4.76094387231651e-03 
3.55210230276210e-01 2.24827820813411e+00 4.90133972645968e-03 
3.57996192866611e-01 2.24723123981169e+00 5.04305986681902e-03 
3.60782155457013e-01 2.24613125465556e+00 5.18608416100655e-03 
3.63568118047415e-01 2.24497668607905e+00 5.33039172005934e-03 
3.66354080637816e-01 2.24376595478048e+00 5.47596088479299e-03 
3.69140043228218e-01 2.24249746930398e+00 5.62276921244731e-03 
3.71926005818620e-01 2.24116962662086e+00 5.77079346364050e-03 
3.74711968409021e-01 2.23978081273179e+00 5.92000958962287e-03 
3.77497930999423e-01 2.23832940329020e+00 6.07039271990592e-03 
3.80283893589824e-01 2.23681376424698e+00 6.22191715023439e-03 
3.83069856180226e-01 2.23523225251683e+00 6.37455633096030e-03 
3.85855818770628e-01 2.23358321666644e+00 6.52828285584210e-03 
3.88641781361029e-01 2.23186499762467e+00 6.68306845125344e-03 
3.91427743951431e-01 2.23007592941497e+00 6.83888396588546e-03 
3.94213706541833e-01 2.22821433991012e+00 6.99569936092943e-03 
3.96999669132234e-01 2.22627855160951e+00 7.15348370076940e-03 
3.99785631722636e-01 2.22426688243898e+00 7.31089399075757e-03 
4.02571594313038e-01 2.22217911501162e+00 7.46614048135775e-03 
4.05357556903439e-01 2.22001566493928e+00 7.62049322694410e-03 
4.08143519493841e-01 2.21777498347943e+00 7.77563739321887e-03 
4.10929482084243e-01 2.21545552105085e+00 7.93154040781327e-03 
4.13715444674644e-01 2.21305572803195e+00 8.08816886306199e-03 
4.16501407265046e-01 2.21057405557833e+00 8.24548851170821e-03 
4.19287369855447e-01 2.20800895645939e+00 8.40346426322127e-03 
4.22073332445849e-01 2.20535888591398e+00 8.56206018075561e-03 
4.24859295036251e-01 2.20262230252490e+00 8.72123947878013e-03 
4.27645257626652e-01 2.19979766911216e+00 8.88096452138746e-03 
4.30431220217054e-01 2.19688345364482e+00 9.04119682131868e-03 
4.33217182807456e-01 2.19387813017113e+00 9.20189703971153e-03 
4.36003145397857e-01 2.19078017976685e+00 9.36302498661474e-03 
4.38789107988259e-01 2.18758809150143e+00 9.52453962229009e-03 
4.41575070578661e-01 2.18430036342173e+00 9.68639905929826e-03 
4.44361033169062e-01 2.18091550355300e+00 9.84856056541799e-03 
4.47146995759464e-01 2.17743203091675e+00 1.00109805674204e-02 
4.49932958349866e-01 2.17384847656510e+00 1.01736146557023e-02 
4.52718920940267e-01 2.17016338463125e+00 1.03364175898113e-02 
4.55504883530669e-01 2.16637531339549e+00 1.04993433048860e-02 
4.58290846121070e-01 2.16248283636639e+00 1.06623449190288e-02 
4.61076808711472e-01 2.15848454337657e+00 1.08253747416218e-02 
4.63862771301874e-01 2.15437904169250e+00 1.09883842826281e-02 
4.66648733892275e-01 2.15016495713774e+00 1.11513242628672e-02 
4.69434696482677e-01 2.14584093522898e+00 1.13141446253052e-02 
4.72220659073079e-01 2.14140564232419e+00 1.14767945473766e-02 
4.75006621663480e-01 2.13685776678221e+00 1.16392224543347e-02 
4.77792584253882e-01 2.13219602013303e+00 1.18013760336677e-02 
4.80578546844284e-01 2.12741913825791e+00 1.19632022505768e-02 
4.83364509434685e-01 2.12252588257862e+00 1.21246473645470e-02 
4.86150472025087e-01 2.11751504125484e+00 1.22856569470114e-02 
4.88936434615489e-01 2.11238543038896e+00 1.24461759001240e-02 
4.91722397205890e-01 2.10713589523718e+00 1.26061484766483e-02 
4.94508359796292e-01 2.10176531142605e+00 1.27655183009742e-02 
4.97294322386693e-01 2.09627258617346e+00 1.29242283912708e-02 
5.00080284977095e-01 2.09065665951292e+00 1.30813164207205e-02 
5.02866247567497e-01 2.08491811073796e+00 1.32359417387668e-02 
5.05652210157898e-01 2.07905742649757e+00 1.33889560169095e-02 
5.08438172748300e-01 2.07307371028085e+00 1.35410947371444e-02 
5.11224135338702e-01 2.06696610161224e+00 1.36923008467300e-02 
5.14010097929103e-01 2.06073377718939e+00 1.38425168763439e-02 
5.16796060519505e-01 2.05437595201738e+00 1.39916849682592e-02 
5.19582023109907e-01 2.04789188053805e+00 1.41397469055642e-02 
5.22367985700308e-01 2.04128085775326e+00 1.42866441424273e-02 
5.25153948290710e-01 2.03454222034087e+00 1.44323178353846e-02 
5.27939910881112e-01 2.02767534776209e+00 1.45767088756482e-02 
5.30725873471513e-01 2.02067966335910e+00 1.47197579224201e-02 
5.33511836061915e-01 2.01355463544149e+00 1.48614054372065e-02 
5.36297798652317e-01 2.00629977836024e+00 1.50015917191139e-02 
5.39083761242718e-01 1.99891465356795e+00 1.51402569411017e-02 
5.41869723833120e-01 1.99139887066388e+00 1.52773411871844e-02 
5.44655686423521e-01 1.98375208842247e+00 1.54127844905617e-02 
5.47441649013923e-01 1.97597401580392e+00 1.55465268726562e-02 
5.50227611604325e-01 1.96806441294543e+00 1.56785083830228e-02 
5.53013574194726e-01 1.96002309213165e+00 1.58086691401126e-02 
5.55799536785128e-01 1.95184991874297e+00 1.59369493728669e-02 
5.58585499375530e-01 1.94354481218006e+00 1.60632894631095e-02 
5.61371461965931e-01 1.93510774676345e+00 1.61876299886970e-02 
5.64157424556333e-01 1.92653875260638e+00 1.63099117674043e-02 
5.66943387146735e-01 1.91783791645970e+00 1.64300759015069e-02 
5.69729349737136e-01 1.90900538252733e+00 1.65480638230161e-02 
5.72515312327538e-01 1.90004135325064e+00 1.66638173395356e-02 
5.75301274917939e-01 1.89094609006048e+00 1.67772786806977e-02 
5.78087237508341e-01 1.88171991409537e+00 1.68883905451307e-02 
5.80873200098743e-01 1.87236320688430e+00 1.69970961479122e-02 
5.83659162689144e-01 1.86287641099286e+00 1.71033392684675e-02 
5.86445125279546e-01 1.85326003063110e+00 1.72070642988608e-02 
5.89231087869948e-01 1.84351463222195e+00 1.73082162924291e-02 
5.92017050460349e-01 1.83364084492853e+00 1.74067410127021e-02 
5.94803013050751e-01 1.82363936113923e+00 1.75025849825616e-02 
5.97588975641153e-01 1.81351093690912e+00 1.75956955335816e-02 
6.00374938231554e-01 1.80325639235631e+00 1.76860208554870e-02 
6.03160900821956e-01 1.79287661201208e+00 1.77735100456813e-02 
6.05946863412358e-01 1.78237254512356e+00 1.78581131587757e-02 
6.08732826002759e-01 1.77174520590752e+00 1.79397812560612e-02 
6.11518788593161e-01 1.76099567375437e+00 1.80184664548598e-02 
6.14304751183563e-01 1.75012509338106e+00 1.80941219776907e-02 
6.17090713773964e-01 1.73913467493183e+00 1.81667022011923e-02 
6.19876676364366e-01 1.72802569402574e+00 1.82361627047188e-02 
6.22662638954767e-01 1.71679949175006e+00 1.83024603185562e-02 
6.25448601545169e-01 1.70545747459842e+00 1.83655531716936e-02 
6.28234564135571e-01 1.69400111435306e+00 1.84254007390667e-02 
6.31020526725972e-01 1.68243194791004e+00 1.84819638882155e-02 
6.33806489316374e-01 1.67075157704695e+00 1.85352049252798e-02 
6.36592451906776e-01 1.65896166813214e+00 1.85850876402654e-02 
6.39378414497177e-01 1.64706395177507e+00 1.86315773515106e-02 
6.42164377087579e-01 1.63506022241693e+00 1.86746409492807e-02 
6.44950339677981e-01 1.62295233786130e+00 1.87142469384204e-02 
6.47736302268382e-01 1.61074221874416e+00 1.87503654799926e-02 
6.50522264858784e-01 1.59843184794311e+00 1.87829684318314e-02 
6.53308227449186e-01 1.58602326992535e+00 1.88120293879446e-02 
6.56094190039587e-01 1.57351859003427e+00 1.88375237166908e-02 
6.58880152629989e-01 1.56091997371457e+00 1.88594285976652e-02 
6.61666115220391e-01 1.54822964567584e+00 1.88777230572245e-02 
6.64452077810792e-01 1.53544988899454e+00 1.88923880025820e-02 
6.67238040401194e-01 1.52258304415472e+00 1.89034062544104e-02 
6.70024002991595e-01 1.50963150802748e+00 1.89107625778850e-02 
6.72809965581997e-01 1.49659773278962e+00 1.89144437121043e-02 
6.75595928172399e-01 1.48348422478181e+00 1.89144383978273e-02 
6.78381890762800e-01 1.47029354330678e+00 1.89107374034641e-02 
6.81167853353202e-01 1.45702829936806e+00 1.89033335492641e-02 
6.83953815943604e-01 1.44369115435009e+00 1.88922217296417e-02 
6.86739778534005e-01 1.43028481864020e+00 1.88773989335898e-02 
6.89525741124407e-01 1.41681205019361e+00 1.88588642631257e-02 
6.92311703714809e-01 1.40327565304215e+00 1.88366189497205e-02 
6.95097666305210e-01 1.38967847574794e+00 1.88106663686656e-02 
6.97883628895612e-01 1.37602340980293e+00 1.87810120513267e-02 
7.00669591486013e-01 1.36231338797580e+00 1.87473640761530e-02 
7.03455554076415e-01 1.34855236996114e+00 1.87096429063619e-02 
7.06241516666817e-01 1.33474369373700e+00 1.86681777836079e-02 
7.09027479257218e-01 1.32089038122034e+00 1.86230915100084e-02 
7.11813441847620e-01 1.30699548740451e+00 1.85744007580970e-02 
7.14599404438022e-01 1.29306209849211e+00 1.85221243434986e-02 
7.17385367028423e-01 1.27909332998578e+00 1.84662832210372e-02 
7.20171329618825e-01 1.26509232473881e+00 1.84069004785465e-02 
7.22957292209227e-01 1.25106225096755e+00 1.83440013283739e-02 
7.25743254799628e-01 1.23700630022738e+00 1.82776130965651e-02 
7.28529217390030e-01 1.22292768535442e+00 1.82077652097189e-02 
7.31315179980432e-01 1.20882963837510e+00 1.81344891795168e-02 
7.34101142570833e-01 1.19471540838555e+00 1.80578185849196e-02 
7.36887105161235e-01 1.18058825940340e+00 1.79777890520381e-02 
7.39673067751637e-01 1.16645146819389e+00 1.78944382316911e-02 
7.42459030342038e-01 1.15230832207295e+00 1.78078057746541e-02 
7.45244992932440e-01 1.13816211668955e+00 1.77179333046206e-02 
7.48030955522841e-01 1.12401615378973e+00 1.76248643888930e-02 
7.50816918113243e-01 1.10987373896493e+00 1.75286445068304e-02 
7.53602880703645e-01 1.09573817938709e+00 1.74293210160785e-02 
7.56388843294046e-01 1.08161278153320e+00 1.73269431166112e-02 
7.59174805884448e-01 1.06750084890178e+00 1.72215618126246e-02 
7.61960768474850e-01 1.05340567972417e+00 1.71132298723187e-02 
7.64746731065251e-01 1.03933056467311e+00 1.70020017856128e-02 
7.67532693655653e-01 1.02527878457148e+00 1.68879337198394e-02 
7.70318656246055e-01 1.01125360810385e+00 1.67710834734693e-02 
7.73104618836456e-01 9.97258289533569e-01 1.66515104279212e-02 
7.75890581426858e-01 9.83296066428212e-01 1.65292754975130e-02 
7.78676544017259e-01 9.69370157396108e-01 1.64044410776197e-02 
7.81462506607661e-01 9.55483759836690e-01 1.62770709910979e-02 
7.84248469198063e-01 9.41640047707437e-01 1.61472304330484e-02 
7.87034431788464e-01 9.27842169310141e-01 1.60149859139865e-02 
7.89820394378866e-01 9.14093245099222e-01 1.58804052014960e-02 
7.92606356969268e-01 9.00396365514787e-01 1.57435572604413e-02 
7.95392319559669e-01 8.86754588843123e-01 1.56045121918206e-02 
7.98178282150071e-01 8.73170939107249e-01 1.54633411703405e-02 
8.00964244740473e-01 8.59648403990156e-01 1.53201163807981e-02 
8.03750207330874e-01 8.46189932793291e-01 1.51749109533585e-02 
8.06536169921276e-01 8.32798434432810e-01 1.50277988978144e-02 
8.09322132511678e-01 8.19476775476087e-01 1.48788550369221e-02 
8.12108095102079e-01 8.06227778220872e-01 1.47281549389067e-02 
8.14894057692481e-01 7.93054218819484e-01 1.45757748492310e-02 
8.17680020282883e-01 7.79958825450319e-01 1.44217916217223e-02 
8.20465982873284e-01 7.66944276538900e-01 1.42662826491590e-02 
8.23251945463686e-01 7.54013199030638e-01 1.41093257934100e-02 
8.26037908054087e-01 7.41168166717362e-01 1.39509993152319e-02 
8.28823870644489e-01 7.28411698619637e-01 1.37913818038204e-02 
8.31609833234891e-01 7.15746257426771e-01 1.36305521062163e-02 
8.34395795825292e-01 7.03174247996338e-01 1.34685892566683e-02 
8.37181758415694e-01 6.90698015914962e-01 1.33055724060530e-02 
8.39967721006096e-01 6.78319846121995e-01 1.31415807514525e-02 
8.42753683596497e-01 6.66041961597628e-01 1.29766934659872e-02 
8.45539646186899e-01 6.53866522116897e-01 1.28109896290077e-02 
8.48325608777301e-01 6.41795623070898e-01 1.26445481567416e-02 
8.51111571367702e-01 6.29831294356477e-01 1.24774477334940e-02 
8.53897533958104e-01 6.17975499335486e-01 1.23097667434961e-02 
8.56683496548506e-01 6.06230133864664e-01 1.21415832035004e-02 
8.59469459138907e-01 5.94597025397018e-01 1.19729746962140e-02 
8.62255421729309e-01 5.83077932155511e-01 1.18040183046617e-02 
8.65041384319711e-01 5.71674542379743e-01 1.16347905475684e-02 
