Energy(eV)           EEDF(eV^-(3/2))      Anisotropy(eV^-(3/2))
2.73207443880970e-02 5.65749908136530e-02 7.92167360174643e-04 
8.19622331642910e-02 5.65469809535656e-02 2.27750153603677e-03 
1.36603721940485e-01 5.65376751097310e-02 2.38168298155173e-03 
1.91245210716679e-01 5.65340539182130e-02 2.51468941603227e-03 
2.45886699492873e-01 5.65319339704786e-02 2.66092548694673e-03 
3.00528188269067e-01 5.65292825426766e-02 2.79072129684480e-03 
3.55169677045261e-01 5.65247928100726e-02 2.90606815771398e-03 
4.09811165821455e-01 5.65178847882454e-02 3.01819647480391e-03 
4.64452654597649e-01 5.65083405289623e-02 3.12832418424113e-03 
5.19094143373843e-01 5.64960385662872e-02 3.23586301210038e-03 
5.73735632150037e-01 5.64808844332614e-02 3.34070107660097e-03 
6.28377120926231e-01 5.64627453364370e-02 3.44279445119517e-03 
6.83018609702425e-01 5.64414843479711e-02 3.54204371441389e-03 
7.37660098478619e-01 5.64169767411040e-02 3.63831149116762e-03 
7.92301587254813e-01 5.63891215171311e-02 3.73160504904249e-03 
8.46943076031007e-01 5.63578041521818e-02 3.82193608440329e-03 
9.01584564807201e-01 5.63229163453411e-02 3.90936189124454e-03 
9.56226053583395e-01 5.62843555864387e-02 3.99399221975746e-03 
1.01086754235959e+00 5.62420241787398e-02 4.07572967600621e-03 
1.06550903113578e+00 5.61962359023105e-02 4.15481359315688e-03 
1.12015051991198e+00 5.61471001500769e-02 4.23110511453282e-03 
1.17479200868817e+00 5.60945601294443e-02 4.30457538945858e-03 
1.22943349746436e+00 5.60385486866657e-02 4.37561629875218e-03 
1.28407498624056e+00 5.59786519856958e-02 4.44438480928249e-03 
1.33871647501675e+00 5.59148827527872e-02 4.51107613158548e-03 
1.39335796379295e+00 5.58474866889703e-02 4.57575641258909e-03 
1.44799945256914e+00 5.57764184921420e-02 4.63835267117214e-03 
1.50264094134533e+00 5.57016355856198e-02 4.69905027026801e-03 
1.55728243012153e+00 5.56235302230647e-02 4.75829223101704e-03 
1.61192391889772e+00 5.55424319246033e-02 4.81611643584194e-03 
1.66656540767392e+00 5.54583187159964e-02 4.87225379696967e-03 
1.72120689645011e+00 5.53711738878778e-02 4.92654551937496e-03 
1.77584838522630e+00 5.52809854697175e-02 4.97887098274114e-03 
1.83048987400250e+00 5.51877458861483e-02 5.02912912926905e-03 
1.88513136277869e+00 5.50914519710414e-02 5.07728131677603e-03 
1.93977285155489e+00 5.49918580502768e-02 5.12332622364193e-03 
1.99441434033108e+00 5.48881226261481e-02 5.16702800209670e-03 
2.04905582910727e+00 5.47802366278612e-02 5.20838340490986e-03 
2.10369731788347e+00 5.46681971698791e-02 5.24727077552595e-03 
2.15833880665966e+00 5.45526397233565e-02 5.28372431821309e-03 
2.21298029543586e+00 5.44340657918163e-02 5.31777421273736e-03 
2.26762178421205e+00 5.43119473937099e-02 5.34927421347023e-03 
2.32226327298824e+00 5.41861109351044e-02 5.37823625948141e-03 
2.37690476176444e+00 5.40565824787544e-02 5.40472358516132e-03 
2.43154625054063e+00 5.39233908333885e-02 5.42870892261262e-03 
2.48618773931683e+00 5.37865717969785e-02 5.44997128767745e-03 
2.54082922809302e+00 5.36459838183912e-02 5.46825723263214e-03 
2.59547071686921e+00 5.35011024739671e-02 5.48349015383529e-03 
2.65011220564541e+00 5.33519854721104e-02 5.49580539571795e-03 
2.70475369442160e+00 5.31986926255611e-02 5.50535000736146e-03 
2.75939518319780e+00 5.30412856915813e-02 5.51227351320099e-03 
2.81403667197399e+00 5.28798275589752e-02 5.51671672576037e-03 
2.86867816075018e+00 5.27146772576065e-02 5.51880809766123e-03 
2.92331964952638e+00 5.25459953527966e-02 5.51866621904316e-03 
2.97796113830257e+00 5.23738484503933e-02 5.51641619726455e-03 
3.03260262707877e+00 5.21983407477822e-02 5.51217589634457e-03 
3.08724411585496e+00 5.20198904372485e-02 5.50604238007460e-03 
3.14188560463115e+00 5.18385640547192e-02 5.49810934337128e-03 
3.19652709340735e+00 5.16544284830319e-02 5.48844941404441e-03 
3.25116858218354e+00 5.14675514416187e-02 5.47711797030308e-03 
3.30581007095974e+00 5.12780018545104e-02 5.46416873448716e-03 
3.36045155973593e+00 5.10858493480288e-02 5.44966430818092e-03 
3.41509304851212e+00 5.08911638803094e-02 5.43366770000698e-03 
3.46973453728832e+00 5.06940157998484e-02 5.41621409712043e-03 
3.52437602606451e+00 5.04944775401984e-02 5.39730075114994e-03 
3.57901751484071e+00 5.02926245876494e-02 5.37694872480565e-03 
3.63365900361690e+00 5.00885547251944e-02 5.35523852220665e-03 
3.68830049239309e+00 4.98825088349538e-02 5.33226311211347e-03 
3.74294198116929e+00 4.96745578094912e-02 5.30812814596273e-03 
3.79758346994548e+00 4.94647705962626e-02 5.28292743949884e-03 
3.85222495872168e+00 4.92532142865169e-02 5.25674427702316e-03 
3.90686644749787e+00 4.90399544804788e-02 5.22965280364614e-03 
3.96150793627406e+00 4.88250553179660e-02 5.20172623390451e-03 
4.01614942505026e+00 4.86085792111758e-02 5.17303627538809e-03 
4.07079091382645e+00 4.83903256729217e-02 5.14366629468234e-03 
4.12543240260264e+00 4.81702901405195e-02 5.11366273290230e-03 
4.18007389137884e+00 4.79485343543015e-02 5.08307327602284e-03 
4.23471538015503e+00 4.77251189678480e-02 5.05194302776798e-03 
4.28935686893123e+00 4.75001038013122e-02 5.02031451330477e-03 
4.34399835770742e+00 4.72735476062445e-02 4.98823345571400e-03 
4.39863984648361e+00 4.70455078077625e-02 4.95574657534292e-03 
4.45328133525981e+00 4.68160404535906e-02 4.92289921753937e-03 
4.50792282403600e+00 4.65852001721373e-02 4.88973008345042e-03 
4.56256431281220e+00 4.63533075801523e-02 4.85625285553930e-03 
4.61720580158839e+00 4.61205575788314e-02 4.82251391422084e-03 
4.67184729036458e+00 4.58869954870565e-02 4.78856607429285e-03 
4.72648877914078e+00 4.56526649143830e-02 4.75444966113362e-03 
4.78113026791697e+00 4.54176078355813e-02 4.72020149884438e-03 
4.83577175669317e+00 4.51818647014831e-02 4.68585548117217e-03 
4.89041324546936e+00 4.49454744737777e-02 4.65144374958928e-03 
4.94505473424555e+00 4.47084746308421e-02 4.61699508556918e-03 
4.99969622302175e+00 4.44709013766909e-02 4.58253416660419e-03 
5.05433771179794e+00 4.42325979581525e-02 4.54809967465044e-03 
5.10897920057414e+00 4.39934062635544e-02 4.51371789597009e-03 
5.16362068935033e+00 4.37533643044749e-02 4.47939979581176e-03 
5.21826217812652e+00 4.35125087008340e-02 4.44516711769898e-03 
5.27290366690272e+00 4.32708748781822e-02 4.41103863387377e-03 
5.32754515567891e+00 4.30284970933727e-02 4.37703304871521e-03 
5.38218664445511e+00 4.27854083274286e-02 4.34316903484260e-03 
5.43682813323130e+00 4.25416403075711e-02 4.30946428816943e-03 
5.49146962200749e+00 4.22972235073199e-02 4.27593488980587e-03 
5.54611111078369e+00 4.20521872473496e-02 4.24259468613239e-03 
5.60075259955988e+00 4.18065597768532e-02 4.20945592229982e-03 
5.65539408833608e+00 4.15603683136216e-02 4.17653022346148e-03 
5.71003557711227e+00 4.13136390190879e-02 4.14382909574351e-03 
5.76467706588846e+00 4.10663969823615e-02 4.11136293688304e-03 
5.81931855466466e+00 4.08186663150878e-02 4.07914084974734e-03 
5.87396004344085e+00 4.05704701647221e-02 4.04717161152022e-03 
5.92860153221705e+00 4.03218306980819e-02 4.01546336272780e-03 
5.98324302099324e+00 4.00727691550944e-02 3.98402342630853e-03 
6.03788450976943e+00 3.98232732617113e-02 3.95286198316782e-03 
6.09252599854563e+00 3.95732278345727e-02 3.92199093458531e-03 
6.14716748732182e+00 3.93226540943737e-02 3.89140539218384e-03 
6.20180897609802e+00 3.90715723946149e-02 3.86110982820163e-03 
6.25645046487421e+00 3.88200022866060e-02 3.83110776184292e-03 
6.31109195365040e+00 3.85679625570216e-02 3.80140236329546e-03 
6.36573344242660e+00 3.83154712187880e-02 3.77199668876077e-03 
6.42037493120279e+00 3.80625455193629e-02 3.74289341490619e-03 
6.47501641997899e+00 3.78092019682642e-02 3.71409480374877e-03 
6.52965790875518e+00 3.75554563525534e-02 3.68560276633019e-03 
6.58429939753137e+00 3.73013237582225e-02 3.65741870704179e-03 
6.63894088630757e+00 3.70468186095558e-02 3.62954345543665e-03 
6.69358237508376e+00 3.67919547033017e-02 3.60197739060356e-03 
6.74822386385996e+00 3.65367452340715e-02 3.57472039393932e-03 
6.80286535263615e+00 3.62812028381194e-02 3.54777189145949e-03 
6.85750684141234e+00 3.60253396158009e-02 3.52113111219367e-03 
6.91214833018854e+00 3.57691671406687e-02 3.49479708072177e-03 
6.96678981896473e+00 3.55126964842765e-02 3.46876847003716e-03 
7.02143130774093e+00 3.52559382483430e-02 3.44306645179457e-03 
7.07607279651712e+00 3.49981191233172e-02 3.41773056082938e-03 
7.13071428529331e+00 3.47391661968744e-02 3.39270162000776e-03 
7.18535577406951e+00 3.44791012522222e-02 3.36797007865127e-03 
7.23999726284570e+00 3.42179454525551e-02 3.34353356210541e-03 
7.29463875162190e+00 3.39557193670958e-02 3.31938953887844e-03 
7.34928024039809e+00 3.36924429867618e-02 3.29553542259685e-03 
7.40392172917428e+00 3.34281357352787e-02 3.27196854828442e-03 
7.45856321795048e+00 3.31628164891747e-02 3.24868613632244e-03 
7.51320470672667e+00 3.28965035954900e-02 3.22568532614874e-03 
7.56784619550286e+00 3.26292148872157e-02 3.20296317287101e-03 
7.62248768427906e+00 3.23609677022892e-02 3.18051661823394e-03 
7.67712917305525e+00 3.20917789046884e-02 3.15834250676761e-03 
7.73177066183145e+00 3.18216649016774e-02 3.13643760437070e-03 
7.78641215060764e+00 3.15506416625584e-02 3.11479860606577e-03 
7.84105363938384e+00 3.12787247352646e-02 3.09342216301155e-03 
7.89569512816003e+00 3.10059292609860e-02 3.07230489642517e-03 
7.95033661693622e+00 3.07322699886751e-02 3.05144339034698e-03 
8.00497810571242e+00 3.04577612912393e-02 3.03082003956576e-03 
8.05961959448861e+00 3.01827609387104e-02 3.01040918318954e-03 
8.11426108326481e+00 2.99075142703442e-02 2.99022609372477e-03 
8.16890257204100e+00 2.96320270226086e-02 2.97028598726792e-03 
8.22354406081719e+00 2.93563047390221e-02 2.95058543050927e-03 
8.27818554959339e+00 2.90803527800363e-02 2.93112099498599e-03 
8.33282703836958e+00 2.88041763314173e-02 2.91188927644091e-03 
8.38746852714577e+00 2.85277804104212e-02 2.89288689286332e-03 
8.44211001592197e+00 2.82511698743800e-02 2.87411047129767e-03 
8.49675150469816e+00 2.79743494292626e-02 2.85555665479947e-03 
8.55139299347436e+00 2.76973236368490e-02 2.83722210702903e-03 
8.60603448225055e+00 2.74200969222808e-02 2.81910350862145e-03 
8.66067597102674e+00 2.71426735818066e-02 2.80119756151705e-03 
8.71531745980294e+00 2.68650577893565e-02 2.78350099414525e-03 
8.76995894857913e+00 2.65872536031033e-02 2.76601056268675e-03 
8.82460043735533e+00 2.63092649715990e-02 2.74872305372237e-03 
8.87924192613152e+00 2.60310957396068e-02 2.73163528612225e-03 
8.93388341490772e+00 2.57527496536395e-02 2.71474411248936e-03 
8.98852490368391e+00 2.54742303672707e-02 2.69804642150805e-03 
9.04316639246010e+00 2.51955414459529e-02 2.68153913910654e-03 
9.09780788123630e+00 2.49166863718341e-02 2.66521922772742e-03 
9.15244937001249e+00 2.46376685484694e-02 2.64908368592222e-03 
9.20709085878868e+00 2.43584913054682e-02 2.63312954948044e-03 
9.26173234756488e+00 2.40791579027135e-02 2.61735389355268e-03 
9.31637383634107e+00 2.37996715342965e-02 2.60175383498941e-03 
9.37101532511727e+00 2.35200353319582e-02 2.58632653252059e-03 
9.42565681389346e+00 2.32402523686939e-02 2.57106918426865e-03 
9.48029830266965e+00 2.29603256624443e-02 2.55597902759993e-03 
9.53493979144585e+00 2.26802581794569e-02 2.54105334018980e-03 
9.58958128022204e+00 2.24000528374686e-02 2.52628943911984e-03 
9.64422276899824e+00 2.21197125089860e-02 2.51168468040392e-03 
9.69886425777443e+00 2.18392400242985e-02 2.49723645963160e-03 
9.75350574655062e+00 2.15586381743426e-02 2.48294221235686e-03 
9.80814723532682e+00 2.12779097133505e-02 2.46879941385842e-03 
9.86278872410301e+00 2.09970573614897e-02 2.45480557820905e-03 
9.91743021287921e+00 2.07160838074477e-02 2.44095825804815e-03 
9.97207170165540e+00 2.04349917108529e-02 2.42725504520569e-03 
1.00267131904316e+01 2.01537837044454e-02 2.41359847926464e-03 
1.00813546792078e+01 1.98744037697460e-02 2.39994246799420e-03 
1.01359961679840e+01 1.95968540315955e-02 2.38642967109216e-03 
1.01906376567602e+01 1.93211149592431e-02 2.37305953259296e-03 
1.02452791455364e+01 1.90471673177820e-02 2.35982991003203e-03 
1.02999206343126e+01 1.87749921628863e-02 2.34673869855489e-03 
1.03545621230888e+01 1.85045708355633e-02 2.33378383064206e-03 
1.04092036118650e+01 1.82358849569945e-02 2.32096327507934e-03 
1.04638451006411e+01 1.79689164235645e-02 2.30827503594951e-03 
1.05184865894173e+01 1.77036474019730e-02 2.29571715245029e-03 
1.05731280781935e+01 1.74400603243431e-02 2.28328769831036e-03 
1.06277695669697e+01 1.71781378835051e-02 2.27098478082170e-03 
1.06824110557459e+01 1.69178630283636e-02 2.25880654042595e-03 
1.07370525445221e+01 1.66592189593117e-02 2.24675115046524e-03 
1.07916940332983e+01 1.64021891236910e-02 2.23481681665704e-03 
1.08463355220745e+01 1.61467572113603e-02 2.22300177639156e-03 
1.09009770108507e+01 1.58929071503515e-02 2.21130429822373e-03 
1.09556184996269e+01 1.56406231025877e-02 2.19972268159833e-03 
1.10102599884031e+01 1.53898894596350e-02 2.18825525636869e-03 
1.10649014771793e+01 1.51406908385637e-02 2.17690038203481e-03 
1.11195429659555e+01 1.48930120779053e-02 2.16565644706050e-03 
1.11741844547317e+01 1.46468382337018e-02 2.15452186840643e-03 
1.12288259435079e+01 1.44021545755991e-02 2.14349509113005e-03 
1.12834674322841e+01 1.41589465830176e-02 2.13257458798762e-03 
1.13381089210602e+01 1.39171999413664e-02 2.12175885912026e-03 
1.13927504098364e+01 1.36769005383138e-02 2.11104643143110e-03 
1.14473918986126e+01 1.34380344601720e-02 2.10043585782899e-03 
1.15020333873888e+01 1.32005879883680e-02 2.08992571684513e-03 
1.15566748761650e+01 1.29645475959422e-02 2.07945419338019e-03 
1.16113163649412e+01 1.27299006925810e-02 2.06885638848382e-03 
1.16659578537174e+01 1.24966611213433e-02 2.05794930129411e-03 
1.17205993424936e+01 1.22648620860424e-02 2.04662196912528e-03 
1.17752408312698e+01 1.20345519055036e-02 2.03484630799117e-03 
1.18298823200460e+01 1.18057777081105e-02 2.02260910962216e-03 
1.18845238088222e+01 1.15785855953457e-02 2.00985985268311e-03 
1.19391652975984e+01 1.13530298723576e-02 1.99655870357081e-03 
1.19938067863746e+01 1.11291711819391e-02 1.98271376046500e-03 
1.20484482751508e+01 1.09070721091870e-02 1.96835426029583e-03 
1.21030897639270e+01 1.06867948483329e-02 1.95350944764869e-03 
1.21577312527032e+01 1.04683895098966e-02 1.93820850045422e-03 
1.22123727414794e+01 1.02519028971004e-02 1.92247949032696e-03 
1.22670142302555e+01 1.00373785765674e-02 1.90634994823117e-03 
1.23216557190317e+01 9.82485694928227e-03 1.88984686035514e-03 
1.23762972078079e+01 9.61437532171738e-03 1.87299666480445e-03 
1.24309386965841e+01 9.40596797703490e-03 1.85582524910342e-03 
1.24855801853603e+01 9.19966624627017e-03 1.83835794858550e-03 
1.25402216741365e+01 8.99549857938896e-03 1.82061954557797e-03 
1.25948631629127e+01 8.79349061614770e-03 1.80263426928162e-03 
1.26495046516889e+01 8.59366525667151e-03 1.78442579642827e-03 
1.27041461404651e+01 8.39604273166192e-03 1.76601725267903e-03 
1.27587876292413e+01 8.20064067215820e-03 1.74743121468109e-03 
1.28134291180175e+01 8.00747417878352e-03 1.72868971276949e-03 
1.28680706067937e+01 7.81655589040371e-03 1.70981423429605e-03 
1.29227120955699e+01 7.62789605213449e-03 1.69081917815101e-03 
1.29773535843461e+01 7.44150210947615e-03 1.67170459405341e-03 
1.30319950731223e+01 7.25738192380314e-03 1.65240487553670e-03 
1.30866365618985e+01 7.07553979449526e-03 1.63280124038880e-03 
1.31412780506747e+01 6.89600979881231e-03 1.61282933825417e-03 
1.31959195394508e+01 6.71882592451045e-03 1.59248611743941e-03 
1.32505610282270e+01 6.54402508625326e-03 1.57178975406608e-03 
1.33052025170032e+01 6.37164137211239e-03 1.55076647300649e-03 
1.33598440057794e+01 6.20170411182746e-03 1.52943591647222e-03 
1.34144854945556e+01 6.03424253746628e-03 1.50782406057062e-03 
1.34691269833318e+01 5.86928279352978e-03 1.48596457161731e-03 
1.35237684721080e+01 5.70684669498897e-03 1.46388665018240e-03 
1.35784099608842e+01 5.54695254356707e-03 1.44161676039091e-03 
1.36330514496604e+01 5.38961689367064e-03 1.41918619311495e-03 
1.36876929384366e+01 5.23485244306950e-03 1.39662909735002e-03 
1.37423344272128e+01 5.08266817514410e-03 1.37397841996833e-03 
1.37969759159890e+01 4.93306949932983e-03 1.35126591929174e-03 
1.38516174047652e+01 4.78605838956410e-03 1.32850163150495e-03 
1.39062588935414e+01 4.64163051598290e-03 1.30565518170961e-03 
1.39609003823176e+01 4.49978680678746e-03 1.28268144186442e-03 
1.40155418710938e+01 4.36053445136376e-03 1.25955052684322e-03 
1.40701833598699e+01 4.22388429579499e-03 1.23625599127293e-03 
1.41248248486461e+01 4.08984998794625e-03 1.21281051236137e-03 
1.41794663374223e+01 3.95844192488496e-03 1.18923165227159e-03 
1.42341078261985e+01 3.82966951028288e-03 1.16553276880635e-03 
1.42887493149747e+01 3.70353922356761e-03 1.14172622344483e-03 
1.43433908037509e+01 3.58005843117559e-03 1.11783185469367e-03 
1.43980322925271e+01 3.45923204569327e-03 1.09388009419372e-03 
1.44526737813033e+01 3.34106278075809e-03 1.06990722490595e-03 
1.45073152700795e+01 3.22554878988663e-03 1.04594289001310e-03 
1.45619567588557e+01 3.11268304761958e-03 1.02200367208574e-03 
1.46165982476319e+01 3.00245822040709e-03 9.98108643463853e-04 
1.46712397364081e+01 2.89486665278775e-03 9.74287708333281e-04 
1.47258812251843e+01 2.78989647635484e-03 9.50570615919685e-04 
1.47805227139605e+01 2.68753221833874e-03 9.26982550116321e-04 
1.48351642027367e+01 2.58775656369600e-03 9.03549093611476e-04 
1.48898056915129e+01 2.49054946143921e-03 8.80297594329596e-04 
1.49444471802891e+01 2.39588827966204e-03 8.57255880375128e-04 
1.49990886690652e+01 2.30374740837404e-03 8.34458619807427e-04 
1.50537301578414e+01 2.21428229280294e-03 8.11919280800460e-04 
1.51083716466176e+01 2.12764284087274e-03 7.89657850407271e-04 
1.51630131353938e+01 2.04377407259567e-03 7.67712859440453e-04 
1.52176546241700e+01 1.96261965383522e-03 7.46100311676098e-04 
1.52722961129462e+01 1.88412210321085e-03 7.24834616729805e-04 
1.53269376017224e+01 1.80822298701248e-03 7.03928665115191e-04 
1.53815790904986e+01 1.73486310243923e-03 6.83393902330612e-04 
1.54362205792748e+01 1.66398264949096e-03 6.63240401815290e-04 
1.54908620680510e+01 1.59552139185373e-03 6.43476936634169e-04 
1.55455035568272e+01 1.52941880712979e-03 6.24111049767649e-04 
1.56001450456034e+01 1.46561422676989e-03 6.05149122896795e-04 
1.56547865343796e+01 1.40404696607205e-03 5.86596443589637e-04 
1.57094280231558e+01 1.34465644461367e-03 5.68457270809083e-04 
1.57640695119320e+01 1.28738229748646e-03 5.50734005124651e-04 
1.58187110007082e+01 1.23215336814486e-03 5.33298839332659e-04 
1.58733524894843e+01 1.17892945936553e-03 5.16159302517507e-04 
1.59279939782605e+01 1.12765113198526e-03 4.99333090500705e-04 
1.59826354670367e+01 1.07828378532069e-03 4.82825717824192e-04 
1.60372769558129e+01 1.03076830698845e-03 4.66657466955917e-04 
1.60919184445891e+01 9.85069391325668e-04 4.50839341988645e-04 
1.61465599333653e+01 9.41125791812548e-04 4.35384636593995e-04 
1.62012014221415e+01 8.98897900307525e-04 4.20292755203071e-04 
1.62558429109177e+01 8.58325584500398e-04 4.05570571731336e-04 
1.63104843996939e+01 8.19368883576891e-04 3.91215175515393e-04 
1.63651258884701e+01 7.81969247422398e-04 3.77231552786736e-04 
1.64197673772463e+01 7.46086752698099e-04 3.63615135906766e-04 
1.64744088660225e+01 7.11664752228982e-04 3.50368799877856e-04 
1.65290503547987e+01 6.78663586691251e-04 3.37477309808506e-04 
1.65836918435749e+01 6.47024964262684e-04 3.24925948340319e-04 
1.66383333323511e+01 6.16713824917322e-04 3.12703438965741e-04 
1.66929748211273e+01 5.87680727310196e-04 3.00811577787030e-04 
1.67476163099035e+01 5.59891140389170e-04 2.89246953887194e-04 
1.68022577986796e+01 5.33297137118279e-04 2.78010246663249e-04 
1.68568992874558e+01 5.07864923294389e-04 2.67096391592259e-04 
1.69115407762320e+01 4.83548380971243e-04 2.56504972016936e-04 
1.69661822650082e+01 4.60314645596214e-04 2.46229676821742e-04 
