Energy(eV)           EEDF(eV^-(3/2))      Anisotropy(eV^-(3/2))
1.53576187795891e-03 2.07021722622321e+00 5.74663899390432e-04 
4.60728563387672e-03 2.06743504871293e+00 9.15035661036725e-04 
7.67880938979453e-03 2.06327138722856e+00 1.36696892053964e-03 
1.07503331457123e-02 2.05829696088542e+00 1.72309052436169e-03 
1.38218569016302e-02 2.05292482992649e+00 2.01141389141188e-03 
1.68933806575480e-02 2.04733415808922e+00 2.24975302148836e-03 
1.99649044134658e-02 2.04168961546064e+00 2.44267674261928e-03 
2.30364281693836e-02 2.03611062824402e+00 2.58987021573571e-03 
2.61079519253014e-02 2.03073926876591e+00 2.71619218824494e-03 
2.91794756812192e-02 2.02547200248453e+00 2.83310231330814e-03 
3.22509994371370e-02 2.02036629319255e+00 2.92077660138890e-03 
3.53225231930548e-02 2.01548270676767e+00 2.98402940208378e-03 
3.83940469489727e-02 2.01083495698629e+00 3.02807300294903e-03 
4.14655707048905e-02 2.00644345579518e+00 3.06475422166869e-03 
4.45370944608083e-02 2.00225253899520e+00 3.09233009150263e-03 
4.76086182167261e-02 1.99829997884041e+00 3.09419623062227e-03 
5.06801419726439e-02 1.99461935891183e+00 3.08654297359288e-03 
5.37516657285617e-02 1.99115982085814e+00 3.07927152896694e-03 
5.68231894844795e-02 1.98791401628874e+00 3.05795060502388e-03 
5.98947132403974e-02 1.98490078259022e+00 3.02551609819168e-03 
6.29662369963152e-02 1.98209826767955e+00 2.99492982878155e-03 
6.60377607522330e-02 1.97947710383484e+00 2.95900644220424e-03 
6.91092845081508e-02 1.97704790504326e+00 2.91024538242287e-03 
7.21808082640686e-02 1.97480731193316e+00 2.86295834464155e-03 
7.52523320199864e-02 1.97271917559890e+00 2.81591421433187e-03 
7.83238557759042e-02 1.97078930474135e+00 2.75551116961224e-03 
8.13953795318220e-02 1.96902181023353e+00 2.69635340932284e-03 
8.44669032877399e-02 1.96738150216274e+00 2.64148505021318e-03 
8.75384270436577e-02 1.96586951443255e+00 2.57631101504757e-03 
9.06099507995755e-02 1.96448767140329e+00 2.51052487611379e-03 
9.36814745554933e-02 1.96321414629946e+00 2.45041940298832e-03 
9.67529983114111e-02 1.96204043010471e+00 2.38606137720510e-03 
9.98245220673289e-02 1.96096721856938e+00 2.31792621812168e-03 
1.02896045823247e-01 1.95998498634087e+00 2.25359725161289e-03 
1.05967569579165e-01 1.95908199845123e+00 2.18871074057763e-03 
1.09039093335082e-01 1.95825822645077e+00 2.11841922509915e-03 
1.12110617091000e-01 1.95750987826840e+00 2.05256726248781e-03 
1.15182140846918e-01 1.95682253281733e+00 1.99036142347899e-03 
1.18253664602836e-01 1.95619586361422e+00 1.92192657637571e-03 
1.21325188358754e-01 1.95562917875611e+00 1.85844230651703e-03 
1.24396712114671e-01 1.95510808679312e+00 1.80239869580938e-03 
1.27468235870589e-01 1.95463125888542e+00 1.74224741190775e-03 
1.30539759626507e-01 1.95419814889036e+00 1.68096049022079e-03 
1.33611283382425e-01 1.95380410441264e+00 1.62099286605994e-03 
1.36682807138343e-01 1.95344663979772e+00 1.55857530105370e-03 
1.39754330894260e-01 1.95312501198362e+00 1.49579970802445e-03 
1.42825854650178e-01 1.95283487489631e+00 1.43907074570884e-03 
1.45897378406096e-01 1.95257089329582e+00 1.38489771717502e-03 
1.48968902162014e-01 1.95233252305292e+00 1.32917785838526e-03 
1.52040425917932e-01 1.95211769815288e+00 1.28271213044883e-03 
1.55111949673850e-01 1.95191888272620e+00 1.24478698720776e-03 
1.58183473429767e-01 1.95173587505009e+00 1.20435037411324e-03 
1.61254997185685e-01 1.95156841414624e+00 1.16140220549234e-03 
1.64326520941603e-01 1.95141617975753e+00 1.11594257413917e-03 
1.67398044697521e-01 1.95127879231960e+00 1.06797184886482e-03 
1.70469568453439e-01 1.95115581292783e+00 1.02384494242820e-03 
1.73541092209356e-01 1.95104376449919e+00 9.87939149772401e-04 
1.76612615965274e-01 1.95094083633473e+00 9.53906886146876e-04 
1.79684139721192e-01 1.95084683773481e+00 9.20398267822771e-04 
1.82755663477110e-01 1.95076062757855e+00 8.91281605363862e-04 
1.85827187233028e-01 1.95068067416231e+00 8.64541814865218e-04 
1.88898710988945e-01 1.95060687296490e+00 8.37325488403474e-04 
1.91970234744863e-01 1.95053879247469e+00 8.15302646149748e-04 
1.95041758500781e-01 1.95047448672175e+00 7.98108246963918e-04 
1.98113282256699e-01 1.95041392944155e+00 7.79964571458060e-04 
2.01184806012617e-01 1.95035708592526e+00 7.65048700405915e-04 
2.04256329768535e-01 1.95030268877064e+00 7.54268564887194e-04 
2.07327853524452e-01 1.95025058210637e+00 7.43389293049938e-04 
2.10399377280370e-01 1.95020076703922e+00 7.34762375909578e-04 
2.13470901036288e-01 1.95015246025971e+00 7.30328116542986e-04 
2.16542424792206e-01 1.95010521789421e+00 7.27248752131114e-04 
2.19613948548124e-01 1.95005905748061e+00 7.25466153626916e-04 
2.22685472304041e-01 1.95001357021919e+00 7.27925680437674e-04 
2.25756996059959e-01 1.94996805930046e+00 7.33060230695773e-04 
2.28828519815877e-01 1.94992253727755e+00 7.38528725639656e-04 
2.31900043571795e-01 1.94987690164013e+00 7.47879296798459e-04 
2.34971567327713e-01 1.94983029786557e+00 7.60709210699223e-04 
2.38043091083630e-01 1.94978271511379e+00 7.73614989159378e-04 
2.41114614839548e-01 1.94973414249213e+00 7.89983403271529e-04 
2.44186138595466e-01 1.94968373049226e+00 8.10350402827418e-04 
2.47257662351384e-01 1.94963129613386e+00 8.31501661352409e-04 
2.50329186107302e-01 1.94957678618315e+00 8.54879759795934e-04 
2.53400709863220e-01 1.94951964289187e+00 8.81734532931535e-04 
2.56472233619137e-01 1.94945944714199e+00 9.10205656502675e-04 
2.59543757375055e-01 1.94939609482763e+00 9.40224867649383e-04 
2.62615281130973e-01 1.94932917316042e+00 9.73866631678731e-04 
2.65686804886891e-01 1.94925796777155e+00 1.01001668925735e-03 
2.68758328642809e-01 1.94918230873239e+00 1.04702165874839e-03 
2.71829852398726e-01 1.94910193867175e+00 1.08762785660585e-03 
2.74901376154644e-01 1.94901584743941e+00 1.13145774436127e-03 
2.77972899910562e-01 1.94892378802223e+00 1.17598352284320e-03 
2.81044423666480e-01 1.94882550888139e+00 1.22420580756250e-03 
2.84115947422398e-01 1.94871977306415e+00 1.27656495650900e-03 
2.87187471178316e-01 1.94860604754313e+00 1.33029097194942e-03 
2.90258994934233e-01 1.94848397214369e+00 1.38485589932254e-03 
2.93330518690151e-01 1.94835318010673e+00 1.44025817841231e-03 
2.96402042446069e-01 1.94821329811242e+00 1.49649616840583e-03 
2.99473566201987e-01 1.94806394630535e+00 1.55574522254726e-03 
3.02545089957905e-01 1.94790388810080e+00 1.62240987618875e-03 
3.05616613713822e-01 1.94773085312843e+00 1.69426070829875e-03 
3.08688137469740e-01 1.94754422729267e+00 1.76719220633403e-03 
3.11759661225658e-01 1.94734338554310e+00 1.84120098129396e-03 
3.14831184981576e-01 1.94712769194052e+00 1.91628346557084e-03 
3.17902708737494e-01 1.94689649972704e+00 1.99243590580755e-03 
3.20974232493411e-01 1.94664915140018e+00 2.06965435588727e-03 
3.24045756249329e-01 1.94638497879112e+00 2.14793467000013e-03 
3.27117280005247e-01 1.94610330314723e+00 2.22727249578790e-03 
3.30188803761165e-01 1.94580343521916e+00 2.30766326754891e-03 
3.33260327517083e-01 1.94548467535237e+00 2.38910219948151e-03 
3.36331851273000e-01 1.94514631358347e+00 2.47158427892922e-03 
3.39403375028918e-01 1.94478762974141e+00 2.55510425965977e-03 
3.42474898784836e-01 1.94440789355359e+00 2.63965665515274e-03 
3.45546422540754e-01 1.94400636475723e+00 2.72523573191513e-03 
3.48617946296672e-01 1.94358229321591e+00 2.81213211932008e-03 
3.51689470052590e-01 1.94313473755570e+00 2.90601306403380e-03 
3.54760993808507e-01 1.94265935836324e+00 3.00636779178159e-03 
3.57832517564425e-01 1.94215513708333e+00 3.10790480440347e-03 
3.60904041320343e-01 1.94162104203495e+00 3.21061468900345e-03 
3.63975565076261e-01 1.94105602863440e+00 3.31448761573938e-03 
3.67047088832179e-01 1.94045903962887e+00 3.41951332729353e-03 
3.70118612588096e-01 1.93982900534052e+00 3.52568112840097e-03 
3.73190136344014e-01 1.93916484392150e+00 3.63297987545930e-03 
3.76261660099932e-01 1.93846546162005e+00 3.74139796620693e-03 
3.79333183855850e-01 1.93772975305793e+00 3.85092332946213e-03 
3.82404707611768e-01 1.93695660151944e+00 3.96154341495284e-03 
3.85476231367685e-01 1.93614487925229e+00 4.07324518324627e-03 
3.88547755123603e-01 1.93529344778046e+00 4.18601509578035e-03 
3.91619278879521e-01 1.93440115822937e+00 4.29983910498481e-03 
3.94690802635439e-01 1.93346685166360e+00 4.41470264454302e-03 
3.97762326391357e-01 1.93248935943719e+00 4.53059061979223e-03 
4.00833850147275e-01 1.93146750355701e+00 4.64969386402388e-03 
4.03905373903192e-01 1.93039812790841e+00 4.77258232526193e-03 
4.06976897659110e-01 1.92927933942429e+00 4.89713231787626e-03 
4.10048421415028e-01 1.92810980446934e+00 5.02270342857258e-03 
4.13119945170946e-01 1.92688818050666e+00 5.14927578403701e-03 
4.16191468926864e-01 1.92561311660424e+00 5.27682884010696e-03 
4.19262992682781e-01 1.92428325395849e+00 5.40534137191445e-03 
4.22334516438699e-01 1.92289722643525e+00 5.53479146435973e-03 
4.25406040194617e-01 1.92145366112807e+00 5.66515650289036e-03 
4.28477563950535e-01 1.91995117893434e+00 5.79641316461049e-03 
4.31549087706453e-01 1.91838839514909e+00 5.92853740976487e-03 
4.34620611462371e-01 1.91676392007674e+00 6.06150447358783e-03 
4.37692135218288e-01 1.91507635966092e+00 6.19528885855839e-03 
4.40763658974206e-01 1.91332431613241e+00 6.32986432707066e-03 
4.43835182730124e-01 1.91150638867527e+00 6.46520389455251e-03 
4.46906706486042e-01 1.90962117411125e+00 6.60127982304085e-03 
4.49978230241960e-01 1.90766726760253e+00 6.73806361523384e-03 
4.53049753997877e-01 1.90564326337273e+00 6.87552600907167e-03 
4.56121277753795e-01 1.90354775544627e+00 7.01363697282731e-03 
4.59192801509713e-01 1.90137933840602e+00 7.15236570074790e-03 
4.62264325265631e-01 1.89913660816916e+00 7.29168060928123e-03 
4.65335849021549e-01 1.89681816278119e+00 7.43154933389020e-03 
4.68407372777466e-01 1.89442260322805e+00 7.57193872648825e-03 
4.71478896533384e-01 1.89194853426608e+00 7.71281485351396e-03 
4.74550420289302e-01 1.88939456526984e+00 7.85414299467180e-03 
4.77621944045220e-01 1.88675931109746e+00 7.99588764236019e-03 
4.80693467801138e-01 1.88404139297340e+00 8.13801250180592e-03 
4.83764991557055e-01 1.88123943938830e+00 8.28048049192841e-03 
4.86836515312973e-01 1.87835208701581e+00 8.42325374696194e-03 
4.89908039068891e-01 1.87537798164582e+00 8.56629361885512e-03 
4.92979562824809e-01 1.87231577913409e+00 8.70956068045942e-03 
4.96051086580727e-01 1.86916414636767e+00 8.85301472954074e-03 
4.99122610336645e-01 1.86592176224581e+00 8.99591635884294e-03 
5.02194134092562e-01 1.86258834826325e+00 9.13567594269821e-03 
5.05265657848480e-01 1.85916646984072e+00 9.27299362021981e-03 
5.08337181604398e-01 1.85565498267493e+00 9.41032086008610e-03 
5.11408705360316e-01 1.85205275713100e+00 9.54761778769293e-03 
5.14480229116234e-01 1.84835867914112e+00 9.68484389291230e-03 
5.17551752872151e-01 1.84457165111319e+00 9.82195803896092e-03 
5.20623276628069e-01 1.84069059284883e+00 9.95891847207487e-03 
5.23694800383987e-01 1.83671444247026e+00 1.00956828319971e-02 
5.26766324139905e-01 1.83264215735539e+00 1.02322081632703e-02 
5.29837847895823e-01 1.82847271508061e+00 1.03684509273748e-02 
5.32909371651740e-01 1.82420511437058e+00 1.05043670157085e-02 
5.35980895407658e-01 1.81983837605443e+00 1.06399117634225e-02 
5.39052419163576e-01 1.81537154402761e+00 1.07750399641159e-02 
5.42123942919494e-01 1.81080368621866e+00 1.09097058854004e-02 
5.45195466675412e-01 1.80613389556023e+00 1.10438632853509e-02 
5.48266990431330e-01 1.80136129096358e+00 1.11774654298354e-02 
5.51338514187247e-01 1.79648501829560e+00 1.13104651107357e-02 
5.54410037943165e-01 1.79150425135772e+00 1.14428146650676e-02 
5.57481561699083e-01 1.78641819286573e+00 1.15744659949959e-02 
5.60553085455001e-01 1.78122607542965e+00 1.17053705887511e-02 
5.63624609210919e-01 1.77592716253276e+00 1.18354795424455e-02 
5.66696132966836e-01 1.77052074950882e+00 1.19647435827936e-02 
5.69767656722754e-01 1.76500616451653e+00 1.20931130907330e-02 
5.72839180478672e-01 1.75938276951028e+00 1.22205381259397e-02 
5.75910704234590e-01 1.75364996120603e+00 1.23469684522375e-02 
5.78982227990508e-01 1.74780717204154e+00 1.24723535639004e-02 
5.82053751746425e-01 1.74185387112961e+00 1.25966427128308e-02 
5.85125275502343e-01 1.73578956520344e+00 1.27197849366100e-02 
5.88196799258261e-01 1.72961379955292e+00 1.28417290874179e-02 
5.91268323014179e-01 1.72332615895076e+00 1.29624238618006e-02 
5.94339846770097e-01 1.71692626856728e+00 1.30818178312797e-02 
5.97411370526015e-01 1.71041379487276e+00 1.31998594737850e-02 
6.00482894281932e-01 1.70378844652615e+00 1.33164972058989e-02 
6.03554418037850e-01 1.69704997524883e+00 1.34316794158953e-02 
6.06625941793768e-01 1.69019817668249e+00 1.35453544975482e-02 
6.09697465549686e-01 1.68323289122956e+00 1.36574708846922e-02 
6.12768989305604e-01 1.67615400487530e+00 1.37679770865177e-02 
6.15840513061521e-01 1.66896144999004e+00 1.38768217235758e-02 
6.18912036817439e-01 1.66165520611048e+00 1.39839535644509e-02 
6.21983560573357e-01 1.65423530069876e+00 1.40893215631023e-02 
6.25055084329275e-01 1.64670180987800e+00 1.41928748968252e-02 
6.28126608085193e-01 1.63905485914314e+00 1.42945630048012e-02 
6.31198131841111e-01 1.63129462404568e+00 1.43943356272202e-02 
6.34269655597028e-01 1.62342133085122e+00 1.44921428449218e-02 
6.37341179352946e-01 1.61543525716844e+00 1.45879351195374e-02 
6.40412703108864e-01 1.60733673254831e+00 1.46816633340810e-02 
6.43484226864782e-01 1.59912613905222e+00 1.47732788339602e-02 
6.46555750620700e-01 1.59080391178795e+00 1.48627334683659e-02 
6.49627274376617e-01 1.58237053941204e+00 1.49499796319904e-02 
6.52698798132535e-01 1.57382656459761e+00 1.50349703070404e-02 
6.55770321888453e-01 1.56517258446613e+00 1.51176591054942e-02 
6.58841845644371e-01 1.55640925098235e+00 1.51980003115598e-02 
6.61913369400289e-01 1.54753727131079e+00 1.52759489242833e-02 
6.64984893156206e-01 1.53855740813312e+00 1.53514607002584e-02 
6.68056416912124e-01 1.52947047992494e+00 1.54244921963883e-02 
6.71127940668042e-01 1.52027736119113e+00 1.54950008126493e-02 
6.74199464423960e-01 1.51097898265867e+00 1.55629448347989e-02 
6.77270988179878e-01 1.50157633142583e+00 1.56282834769744e-02 
6.80342511935796e-01 1.49207045106688e+00 1.56909769241318e-02 
6.83414035691713e-01 1.48246244169129e+00 1.57509863742655e-02 
6.86485559447631e-01 1.47275345995662e+00 1.58082740803508e-02 
6.89557083203549e-01 1.46294471903410e+00 1.58628033919489e-02 
6.92628606959467e-01 1.45303748852626e+00 1.59145387964225e-02 
6.95700130715385e-01 1.44303309433572e+00 1.59634459596976e-02 
6.98771654471302e-01 1.43293291848455e+00 1.60090828630998e-02 
7.01843178227220e-01 1.42273950914331e+00 1.60477802613628e-02 
7.04914701983138e-01 1.41246435020670e+00 1.60800595379337e-02 
7.07986225739056e-01 1.40210893265495e+00 1.61096172188255e-02 
7.11057749494974e-01 1.39167479260552e+00 1.61364313686248e-02 
7.14129273250891e-01 1.38116351086713e+00 1.61604812712729e-02 
7.17200797006809e-01 1.37057671245320e+00 1.61817474571314e-02 
7.20272320762727e-01 1.35991606605448e+00 1.62002117292694e-02 
7.23343844518645e-01 1.34918328347097e+00 1.62158571889282e-02 
7.26415368274563e-01 1.33838011900290e+00 1.62286682601134e-02 
7.29486892030481e-01 1.32750836880103e+00 1.62386307132806e-02 
7.32558415786398e-01 1.31656987017612e+00 1.62457316880672e-02 
7.35629939542316e-01 1.30556650086791e+00 1.62499597150313e-02 
7.38701463298234e-01 1.29450017827367e+00 1.62513047363580e-02 
7.41772987054152e-01 1.28337285863662e+00 1.62497581254895e-02 
7.44844510810070e-01 1.27218653619446e+00 1.62453127056475e-02 
7.47916034565987e-01 1.26094324228845e+00 1.62379627672010e-02 
7.50987558321905e-01 1.24964504443340e+00 1.62277040838482e-02 
7.54059082077823e-01 1.23829404534899e+00 1.62145339275798e-02 
7.57130605833741e-01 1.22689238195303e+00 1.61984510823783e-02 
7.60202129589659e-01 1.21544222431717e+00 1.61794558566327e-02 
7.63273653345577e-01 1.20394577458578e+00 1.61575500942303e-02 
7.66345177101494e-01 1.19240526585850e+00 1.61327371842941e-02 
7.69416700857412e-01 1.18082296103749e+00 1.61050220695438e-02 
7.72488224613330e-01 1.16920115163992e+00 1.60744112532442e-02 
7.75559748369248e-01 1.15754215657674e+00 1.60409128047208e-02 
7.78631272125166e-01 1.14584832089850e+00 1.60045363634219e-02 
7.81702795881083e-01 1.13412201450933e+00 1.59652931415013e-02 
7.84774319637001e-01 1.12236563085003e+00 1.59231959248975e-02 
7.87845843392919e-01 1.11058158555127e+00 1.58782590729019e-02 
7.90917367148837e-01 1.09877231505826e+00 1.58304985161927e-02 
7.93988890904755e-01 1.08694027522774e+00 1.57799317533219e-02 
7.97060414660672e-01 1.07508793989885e+00 1.57265778456452e-02 
8.00131938416590e-01 1.06321779943896e+00 1.56699795013561e-02 
8.03203462172508e-01 1.05133399235096e+00 1.56097849954270e-02 
8.06274985928426e-01 1.03944036940983e+00 1.55465388563600e-02 
8.09346509684344e-01 1.02753939429448e+00 1.54806836265616e-02 
8.12418033440261e-01 1.01563353922685e+00 1.54122461925218e-02 
8.15489557196179e-01 1.00372528349017e+00 1.53412548528343e-02 
8.18561080952097e-01 9.91817111933302e-01 1.52677393020150e-02 
8.21632604708015e-01 9.79911513462672e-01 1.51917306128774e-02 
8.24704128463933e-01 9.68010979523263e-01 1.51132612174744e-02 
8.27775652219850e-01 9.56118002570240e-01 1.50323648866231e-02 
8.30847175975768e-01 9.44235074532721e-01 1.49490767080214e-02 
8.33918699731686e-01 9.32364685271288e-01 1.48634330629782e-02 
8.36990223487604e-01 9.20509321030833e-01 1.47754716017728e-02 
8.40061747243522e-01 9.08671462890359e-01 1.46852312176681e-02 
8.43133270999440e-01 8.96853585211359e-01 1.45927520195968e-02 
8.46204794755357e-01 8.85058154086440e-01 1.44980753035481e-02 
8.49276318511275e-01 8.73287625789837e-01 1.44012435226855e-02 
8.52347842267193e-01 8.61544445231488e-01 1.43023002562218e-02 
8.55419366023111e-01 8.49831044416354e-01 1.42012901770831e-02 
8.58490889779029e-01 8.38149840910654e-01 1.40982590183984e-02 
8.61562413534946e-01 8.26503236316711e-01 1.39932535388501e-02 
8.64633937290864e-01 8.14893614758066e-01 1.38863214869215e-02 
8.67705461046782e-01 8.03323341376563e-01 1.37775115640826e-02 
8.70776984802700e-01 7.91794760843058e-01 1.36668733869562e-02 
8.73848508558618e-01 7.80310195883420e-01 1.35544574485071e-02 
8.76920032314536e-01 7.68871945821464e-01 1.34403150783001e-02 
8.79991556070453e-01 7.57482285140461e-01 1.33244984018723e-02 
8.83063079826371e-01 7.46143462064838e-01 1.32070602992702e-02 
8.86134603582289e-01 7.34857697163652e-01 1.30880543628000e-02 
8.89206127338207e-01 7.23627181977433e-01 1.29675348540437e-02 
8.92277651094125e-01 7.12454077669926e-01 1.28455566601916e-02 
8.95349174850042e-01 7.01340513706252e-01 1.27221752497466e-02 
8.98420698605960e-01 6.90288586558993e-01 1.25974466276561e-02 
9.01492222361878e-01 6.79300358443634e-01 1.24714272899263e-02 
9.04563746117796e-01 6.68377856084797e-01 1.23441741777760e-02 
9.07635269873714e-01 6.57523069514641e-01 1.22157446313878e-02 
9.10706793629631e-01 6.46737950904767e-01 1.20861963433181e-02 
9.13778317385549e-01 6.36024413432935e-01 1.19555873116196e-02 
9.16849841141467e-01 6.25384330185826e-01 1.18239757927415e-02 
9.19921364897385e-01 6.14819533099075e-01 1.16914202542662e-02 
9.22992888653303e-01 6.04331811935707e-01 1.15579793275418e-02 
9.26064412409221e-01 5.93922913304103e-01 1.14237117602726e-02 
9.29135936165138e-01 5.83594539716521e-01 1.12886763691275e-02 
9.32207459921056e-01 5.73348348689183e-01 1.11529319924297e-02 
9.35278983676974e-01 5.63185951884860e-01 1.10165374429846e-02 
9.38350507432892e-01 5.53108914298824e-01 1.08795514611109e-02 
9.41422031188810e-01 5.43118753489001e-01 1.07420326679322e-02 
9.44493554944727e-01 5.33216938851067e-01 1.06040395189892e-02 
9.47565078700645e-01 5.23404890939186e-01 1.04656302582335e-02 
9.50636602456563e-01 5.13683980833020e-01 1.03268628724603e-02 
9.53708126212481e-01 5.04055529551568e-01 1.01877950462370e-02 
