Energy(eV)           EEDF(eV^-(3/2))      Anisotropy(eV^-(3/2))
1.53576187795891e-03 2.04872803786269e+00 7.41354242035215e-04 
4.60728563387672e-03 2.04499882112928e+00 1.03744853946708e-03 
7.67880938979453e-03 2.03961582212500e+00 1.49396182411306e-03 
1.07503331457123e-02 2.03383051141883e+00 1.80978146696884e-03 
1.38218569016302e-02 2.02799811009375e+00 2.04332170491789e-03 
1.68933806575480e-02 2.02233947374950e+00 2.24717973401863e-03 
1.99649044134658e-02 2.01664306693681e+00 2.43716214913985e-03 
2.30364281693836e-02 2.01102189531724e+00 2.59358633770022e-03 
2.61079519253014e-02 2.00551924817669e+00 2.71133218524068e-03 
2.91794756812192e-02 2.00027944418003e+00 2.78930126335105e-03 
3.22509994371370e-02 1.99533727713848e+00 2.87209272373029e-03 
3.53225231930548e-02 1.99050267100226e+00 2.95944429086841e-03 
3.83940469489727e-02 1.98584364681881e+00 3.01612090444693e-03 
4.14655707048905e-02 1.98141883704280e+00 3.07148153621744e-03 
4.45370944608083e-02 1.97711051407135e+00 3.13163445575401e-03 
4.76086182167261e-02 1.97295351193196e+00 3.17072152851561e-03 
5.06801419726439e-02 1.96898179476560e+00 3.19221212046504e-03 
5.37516657285617e-02 1.96520492144536e+00 3.19848486966488e-03 
5.68231894844795e-02 1.96164011545399e+00 3.18614800989568e-03 
5.98947132403974e-02 1.95830820002875e+00 3.15369783101724e-03 
6.29662369963152e-02 1.95522603250191e+00 3.10114007882147e-03 
6.60377607522330e-02 1.95240653475160e+00 3.02845439495849e-03 
6.91092845081508e-02 1.94985871202067e+00 2.94489224818195e-03 
7.21808082640686e-02 1.94755622892297e+00 2.88916349963524e-03 
7.52523320199864e-02 1.94538656813516e+00 2.85808241502377e-03 
7.83238557759042e-02 1.94335643980892e+00 2.81487392113631e-03 
8.13953795318220e-02 1.94147112559113e+00 2.75953588279841e-03 
8.44669032877399e-02 1.93973448389740e+00 2.69205875993467e-03 
8.75384270436577e-02 1.93814895310655e+00 2.61242662831096e-03 
9.06099507995755e-02 1.93671555274966e+00 2.52061847656968e-03 
9.36814745554933e-02 1.93543388280293e+00 2.41660985897130e-03 
9.67529983114111e-02 1.93430212123053e+00 2.30037503565021e-03 
9.98245220673289e-02 1.93331701996060e+00 2.19173676528178e-03 
1.02896045823247e-01 1.93243921150137e+00 2.12083368461224e-03 
1.05967569579165e-01 1.93162408693952e+00 2.07064795662193e-03 
1.09039093335082e-01 1.93087208275541e+00 2.01399213319865e-03 
1.12110617091000e-01 1.93018323499964e+00 1.95086201621397e-03 
1.15182140846918e-01 1.92955717921611e+00 1.88125285686209e-03 
1.18253664602836e-01 1.92899315017194e+00 1.80515978812930e-03 
1.21325188358754e-01 1.92848998141085e+00 1.74595884127881e-03 
1.24396712114671e-01 1.92801966384607e+00 1.70886296241325e-03 
1.27468235870589e-01 1.92758036661356e+00 1.66971424227011e-03 
1.30539759626507e-01 1.92717213001611e+00 1.62669041165706e-03 
1.33611283382425e-01 1.92679485104199e+00 1.57979037512504e-03 
1.36682807138343e-01 1.92644828334702e+00 1.52901294495423e-03 
1.39754330894260e-01 1.92613203720429e+00 1.47435696613820e-03 
1.42825854650178e-01 1.92584557942372e+00 1.41582147594273e-03 
1.45897378406096e-01 1.92558823324450e+00 1.35340591256023e-03 
1.48968902162014e-01 1.92535917820350e+00 1.28993164012419e-03 
1.52040425917932e-01 1.92515550493085e+00 1.24066947051130e-03 
1.55111949673850e-01 1.92496679938545e+00 1.20469196592656e-03 
1.58183473429767e-01 1.92479288333774e+00 1.16631257547832e-03 
1.61254997185685e-01 1.92463352361083e+00 1.12553124093556e-03 
1.64326520941603e-01 1.92448843206102e+00 1.08234806153393e-03 
1.67398044697521e-01 1.92435726555356e+00 1.03676338049991e-03 
1.70469568453439e-01 1.92423962593435e+00 9.98376183848998e-04 
1.73541092209356e-01 1.92413063004800e+00 9.73738473288895e-04 
1.76612615965274e-01 1.92402782631319e+00 9.53236834709268e-04 
1.79684139721192e-01 1.92393118434639e+00 9.31428484348661e-04 
1.82755663477110e-01 1.92384065752912e+00 9.08313447126477e-04 
1.85827187233028e-01 1.92375618300704e+00 8.83891765023657e-04 
1.88898710988945e-01 1.92367768168854e+00 8.58163508610711e-04 
1.91970234744863e-01 1.92360505824253e+00 8.31128791434760e-04 
1.95041758500781e-01 1.92353820109574e+00 8.02787788324020e-04 
1.98113282256699e-01 1.92347698242945e+00 7.73140758987824e-04 
2.01184806012617e-01 1.92342125817568e+00 7.58470318798325e-04 
2.04256329768535e-01 1.92336610955330e+00 7.62352286983695e-04 
2.07327853524452e-01 1.92331093049626e+00 7.68200945108934e-04 
2.10399377280370e-01 1.92325573909315e+00 7.73883589589821e-04 
2.13470901036288e-01 1.92320055317045e+00 7.79400242332770e-04 
2.16542424792206e-01 1.92314539029262e+00 7.84750925258148e-04 
2.19613948548124e-01 1.92309026776213e+00 7.89935660267382e-04 
2.22685472304041e-01 1.92303520261951e+00 7.94954469222986e-04 
2.25756996059959e-01 1.92298021164338e+00 7.99807373926077e-04 
2.28828519815877e-01 1.92292531135053e+00 8.04494396109133e-04 
2.31900043571795e-01 1.92287051799597e+00 8.09015557443185e-04 
2.34971567327713e-01 1.92281584757294e+00 8.13370879479192e-04 
2.38043091083630e-01 1.92276131581301e+00 8.17560383669998e-04 
2.41114614839548e-01 1.92270693818610e+00 8.21584091349645e-04 
2.44186138595466e-01 1.92265272990058e+00 8.25442023684607e-04 
2.47257662351384e-01 1.92259870590325e+00 8.29134201692657e-04 
2.50329186107302e-01 1.92254488087946e+00 8.45535643666711e-04 
2.53400709863220e-01 1.92248795205333e+00 8.83247566131520e-04 
2.56472233619137e-01 1.92242553247015e+00 9.29619318892356e-04 
2.59543757375055e-01 1.92235731308927e+00 9.76838004593688e-04 
2.62615281130973e-01 1.92228297807580e+00 1.02490256834899e-03 
2.65686804886891e-01 1.92220220481573e+00 1.07381190136301e-03 
2.68758328642809e-01 1.92211466393206e+00 1.12356483669242e-03 
2.71829852398726e-01 1.92202001930205e+00 1.17416014528508e-03 
2.74901376154644e-01 1.92191792807561e+00 1.22559653229839e-03 
2.77972899910562e-01 1.92180804069489e+00 1.27787263351445e-03 
2.81044423666480e-01 1.92169000091503e+00 1.33098701192506e-03 
2.84115947422398e-01 1.92156344582629e+00 1.38493815442087e-03 
2.87187471178316e-01 1.92142800587738e+00 1.43972446849037e-03 
2.90258994934233e-01 1.92128330490029e+00 1.49534427901661e-03 
2.93330518690151e-01 1.92112896013644e+00 1.55179582511929e-03 
2.96402042446069e-01 1.92096458226432e+00 1.60907725698010e-03 
2.99473566201987e-01 1.92078977542869e+00 1.66947125266941e-03 
3.02545089957905e-01 1.92060316508026e+00 1.73760802248793e-03 
3.05616613713822e-01 1.92040220323433e+00 1.81115593178307e-03 
3.08688137469740e-01 1.92018624093980e+00 1.88578912192116e-03 
3.11759661225658e-01 1.91995461803848e+00 1.96150375614501e-03 
3.14831184981576e-01 1.91970666324279e+00 2.03829579833778e-03 
3.17902708737494e-01 1.91944169421792e+00 2.11616100578929e-03 
3.20974232493411e-01 1.91915901766855e+00 2.19509492204432e-03 
3.24045756249329e-01 1.91885792943031e+00 2.27509286977494e-03 
3.27117280005247e-01 1.91853771456606e+00 2.35614994372399e-03 
3.30188803761165e-01 1.91819764746719e+00 2.43826100366405e-03 
3.33260327517083e-01 1.91783699196015e+00 2.52142066735347e-03 
3.36331851273000e-01 1.91745500141819e+00 2.60562330351569e-03 
3.39403375028918e-01 1.91705091887863e+00 2.69086302483021e-03 
3.42474898784836e-01 1.91662397716567e+00 2.77713368093111e-03 
3.45546422540754e-01 1.91617339901907e+00 2.86442885139779e-03 
3.48617946296672e-01 1.91569839722860e+00 2.95300172234642e-03 
3.51689470052590e-01 1.91519800520261e+00 3.04781493311361e-03 
3.54760993808507e-01 1.91466808511241e+00 3.14842933418809e-03 
3.57832517564425e-01 1.91410760560407e+00 3.25019645391088e-03 
3.60904041320343e-01 1.91351552271419e+00 3.35310619846170e-03 
3.63975565076261e-01 1.91289078011190e+00 3.45714804197956e-03 
3.67047088832179e-01 1.91223230935160e+00 3.56231101626141e-03 
3.70118612588096e-01 1.91153903013673e+00 3.66858370053252e-03 
3.73190136344014e-01 1.91080985059488e+00 3.77595421128706e-03 
3.76261660099932e-01 1.91004366756425e+00 3.88441019220155e-03 
3.79333183855850e-01 1.90923936689198e+00 3.99393880413988e-03 
3.82404707611768e-01 1.90839582374444e+00 4.10452671525854e-03 
3.85476231367685e-01 1.90751190292957e+00 4.21616009121072e-03 
3.88547755123603e-01 1.90658645923183e+00 4.32882458548414e-03 
3.91619278879521e-01 1.90561833775965e+00 4.44250532985553e-03 
3.94690802635439e-01 1.90460637430573e+00 4.55718692497826e-03 
3.97762326391357e-01 1.90354939572040e+00 4.67285343113584e-03 
4.00833850147275e-01 1.90244622029822e+00 4.78775477039429e-03 
4.03905373903192e-01 1.90129727894052e+00 4.90140890892045e-03 
4.06976897659110e-01 1.90010194121396e+00 5.01545681907142e-03 
4.10048421415028e-01 1.89885910112678e+00 5.13037205516778e-03 
4.13119945170946e-01 1.89756764659729e+00 5.24613741359785e-03 
4.16191468926864e-01 1.89622645985191e+00 5.36273516449994e-03 
4.19262992682781e-01 1.89483441783524e+00 5.48014704498396e-03 
4.22334516438699e-01 1.89339039263226e+00 5.59835425256551e-03 
4.25406040194617e-01 1.89189325190279e+00 5.71733743883868e-03 
4.28477563950535e-01 1.89034185932820e+00 5.83707670338750e-03 
4.31549087706453e-01 1.88873507507061e+00 5.95755158796625e-03 
4.34620611462371e-01 1.88707175624444e+00 6.07874107094459e-03 
4.37692135218288e-01 1.88535075740056e+00 6.20062356203965e-03 
4.40763658974206e-01 1.88357093102296e+00 6.32317689735367e-03 
4.43835182730124e-01 1.88173112803800e+00 6.44637833472057e-03 
4.46906706486042e-01 1.87983019833632e+00 6.57020454939054e-03 
4.49978230241960e-01 1.87786699130732e+00 6.69463163004400e-03 
4.53049753997877e-01 1.87584035638627e+00 6.81963507517259e-03 
4.56121277753795e-01 1.87374914361400e+00 6.94518978983194e-03 
4.59192801509713e-01 1.87159220420913e+00 7.07127008277029e-03 
4.62264325265631e-01 1.86936839115286e+00 7.19784966397320e-03 
4.65335849021549e-01 1.86707655978613e+00 7.32490164261011e-03 
4.68407372777466e-01 1.86471556841913e+00 7.45239852541923e-03 
4.71478896533384e-01 1.86228427895315e+00 7.58031221553737e-03 
4.74550420289302e-01 1.85978155751448e+00 7.70861401178354e-03 
4.77621944045220e-01 1.85720627510038e+00 7.83727460842152e-03 
4.80693467801138e-01 1.85455730823682e+00 7.96626409541007e-03 
4.83764991557055e-01 1.85183353964806e+00 8.09555195915959e-03 
4.86836515312973e-01 1.84903385893757e+00 8.22510708379922e-03 
4.89908039068891e-01 1.84615716328036e+00 8.35489775297594e-03 
4.92979562824809e-01 1.84320235812634e+00 8.48489165220694e-03 
4.96051086580727e-01 1.84016835791450e+00 8.61505587179213e-03 
4.99122610336645e-01 1.83705408679764e+00 8.74507845176435e-03 
5.02194134092562e-01 1.83385888455430e+00 8.87390834852583e-03 
5.05265657848480e-01 1.83058321401648e+00 9.00180524569738e-03 
5.08337181604398e-01 1.82722608308002e+00 9.12973005823585e-03 
5.11408705360316e-01 1.82378651186554e+00 9.25764846874010e-03 
5.14480229116234e-01 1.82026353343972e+00 9.38552562902819e-03 
5.17551752872151e-01 1.81665619454432e+00 9.51332616689065e-03 
5.20623276628069e-01 1.81296355633259e+00 9.64101419344753e-03 
5.23694800383987e-01 1.80918469511256e+00 9.76855331112574e-03 
5.26766324139905e-01 1.80531870309685e+00 9.89590662225542e-03 
5.29837847895823e-01 1.80136468915865e+00 1.00230367383022e-02 
5.32909371651740e-01 1.79732177959321e+00 1.01499057897417e-02 
5.35980895407658e-01 1.79318911888455e+00 1.02764754365780e-02 
5.39052419163576e-01 1.78896587047680e+00 1.04027068795245e-02 
5.42123942919494e-01 1.78465121754964e+00 1.05285608718453e-02 
5.45195466675412e-01 1.78024436379738e+00 1.06539977318680e-02 
5.48266990431330e-01 1.77574453421095e+00 1.07789773561733e-02 
5.51338514187247e-01 1.77115097586250e+00 1.09034592334550e-02 
5.54410037943165e-01 1.76646295869166e+00 1.10274024590720e-02 
5.57481561699083e-01 1.76167977629316e+00 1.11507657502851e-02 
5.60553085455001e-01 1.75680074670496e+00 1.12735074621854e-02 
5.63624609210919e-01 1.75182521319631e+00 1.13955856043117e-02 
5.66696132966836e-01 1.74675254505505e+00 1.15169578579605e-02 
5.69767656722754e-01 1.74158213837347e+00 1.16375815941875e-02 
5.72839180478672e-01 1.73631341683199e+00 1.17574138925046e-02 
5.75910704234590e-01 1.73094583247990e+00 1.18764115602654e-02 
5.78982227990508e-01 1.72547886651251e+00 1.19945311527365e-02 
5.82053751746425e-01 1.71991203004380e+00 1.21117289938564e-02 
5.85125275502343e-01 1.71424486487391e+00 1.22279611976701e-02 
5.88196799258261e-01 1.70847694425057e+00 1.23431836904436e-02 
5.91268323014179e-01 1.70260787362380e+00 1.24573522334373e-02 
5.94339846770097e-01 1.69663729139279e+00 1.25704224463462e-02 
5.97411370526015e-01 1.69056486964445e+00 1.26823498313949e-02 
6.00482894281932e-01 1.68439031488246e+00 1.27930897980638e-02 
6.03554418037850e-01 1.67811336874620e+00 1.29025976884565e-02 
6.06625941793768e-01 1.67173380871846e+00 1.30108288032797e-02 
6.09697465549686e-01 1.66525144882124e+00 1.31177384284292e-02 
6.12768989305604e-01 1.65866614029862e+00 1.32232818621721e-02 
6.15840513061521e-01 1.65197777228577e+00 1.33274144429061e-02 
6.18912036817439e-01 1.64518627246326e+00 1.34300915774717e-02 
6.21983560573357e-01 1.63829160769577e+00 1.35312687700117e-02 
6.25055084329275e-01 1.63129378465410e+00 1.36309016513538e-02 
6.28126608085193e-01 1.62419285041978e+00 1.37289460088944e-02 
6.31198131841111e-01 1.61698889307112e+00 1.38253578169650e-02 
6.34269655597028e-01 1.60968204224996e+00 1.39200932676632e-02 
6.37341179352946e-01 1.60227246970806e+00 1.40131088021134e-02 
6.40412703108864e-01 1.59476038983218e+00 1.41043611421335e-02 
6.43484226864782e-01 1.58714606014701e+00 1.41938073223003e-02 
6.46555750620700e-01 1.57942978179500e+00 1.42814047223656e-02 
6.49627274376617e-01 1.57161189999200e+00 1.43671110999974e-02 
6.52698798132535e-01 1.56369280445810e+00 1.44508846238284e-02 
6.55770321888453e-01 1.55567292982245e+00 1.45326839067712e-02 
6.58841845644371e-01 1.54755275600135e+00 1.46124680395706e-02 
6.61913369400289e-01 1.53933280854863e+00 1.46901966245582e-02 
6.64984893156206e-01 1.53101365897756e+00 1.47658298095836e-02 
6.68056416912124e-01 1.52259592505321e+00 1.48393283220813e-02 
6.71127940668042e-01 1.51408027105465e+00 1.49106535032306e-02 
6.74199464423960e-01 1.50546740800605e+00 1.49797673421864e-02 
6.77270988179878e-01 1.49675809387583e+00 1.50466325103330e-02 
6.80342511935796e-01 1.48795313374318e+00 1.51112123955256e-02 
6.83414035691713e-01 1.47905337993107e+00 1.51734711362778e-02 
6.86485559447631e-01 1.47005973210514e+00 1.52333736558581e-02 
6.89557083203549e-01 1.46097313733763e+00 1.52908856962516e-02 
6.92628606959467e-01 1.45179459013572e+00 1.53459738519445e-02 
6.95700130715385e-01 1.44252513243365e+00 1.53986056034947e-02 
6.98771654471302e-01 1.43316585354795e+00 1.54487085030061e-02 
7.01843178227220e-01 1.42371799598718e+00 1.54958880553248e-02 
7.04914701983138e-01 1.41418369725489e+00 1.55401688732464e-02 
7.07986225739056e-01 1.40456418471599e+00 1.55818936050894e-02 
7.11057749494974e-01 1.39486073166820e+00 1.56210352495727e-02 
7.14129273250891e-01 1.38507465710104e+00 1.56575678705988e-02 
7.17200797006809e-01 1.37520732541591e+00 1.56914666272340e-02 
7.20272320762727e-01 1.36526014610686e+00 1.57227078031222e-02 
7.23343844518645e-01 1.35523457340198e+00 1.57512688352868e-02 
7.26415368274563e-01 1.34513210586492e+00 1.57771283422853e-02 
7.29486892030481e-01 1.33495428595646e+00 1.58002661516614e-02 
7.32558415786398e-01 1.32470269955595e+00 1.58206633266613e-02 
7.35629939542316e-01 1.31437897544243e+00 1.58383021921635e-02 
7.38701463298234e-01 1.30398478473547e+00 1.58531663597820e-02 
7.41772987054152e-01 1.29352184029561e+00 1.58652407521006e-02 
7.44844510810070e-01 1.28299189608453e+00 1.58745116259926e-02 
7.47916034565987e-01 1.27239674648494e+00 1.58809665949903e-02 
7.50987558321905e-01 1.26173822558041e+00 1.58845946506549e-02 
7.54059082077823e-01 1.25101820639520e+00 1.58853861829154e-02 
7.57130605833741e-01 1.24023860009454e+00 1.58833329993324e-02 
7.60202129589659e-01 1.22940135514545e+00 1.58784283432481e-02 
7.63273653345577e-01 1.21850845643858e+00 1.58706669107844e-02 
7.66345177101494e-01 1.20756192437140e+00 1.58600448666534e-02 
7.69416700857412e-01 1.19656381389332e+00 1.58465598587476e-02 
7.72488224613330e-01 1.18551621351305e+00 1.58302110314742e-02 
7.75559748369248e-01 1.17442124426909e+00 1.58109990377974e-02 
7.78631272125166e-01 1.16328105866362e+00 1.57889260499610e-02 
7.81702795881083e-01 1.15209783956076e+00 1.57639957688610e-02 
7.84774319637001e-01 1.14087379904985e+00 1.57362134320401e-02 
7.87845843392919e-01 1.12961117727450e+00 1.57055858202732e-02 
7.90917367148837e-01 1.11831224122833e+00 1.56721212627263e-02 
7.93988890904755e-01 1.10697928351829e+00 1.56358296406592e-02 
7.97060414660672e-01 1.09561462109655e+00 1.55967223896553e-02 
8.00131938416590e-01 1.08422059396192e+00 1.55548125003560e-02 
8.03203462172508e-01 1.07279956383195e+00 1.55101145176832e-02 
8.06274985928426e-01 1.06135391278672e+00 1.54626445385328e-02 
8.09346509684344e-01 1.04988604188569e+00 1.54124202079312e-02 
8.12418033440261e-01 1.03839836975856e+00 1.53594607136406e-02 
8.15489557196179e-01 1.02689333117170e+00 1.53037867791977e-02 
8.18561080952097e-01 1.01537337557126e+00 1.52454206553921e-02 
8.21632604708015e-01 1.00384096560437e+00 1.51843861101711e-02 
8.24704128463933e-01 9.92298575619983e-01 1.51207084169681e-02 
8.27775652219850e-01 9.80748690150581e-01 1.50544143414620e-02 
8.30847175975768e-01 9.69193802376407e-01 1.49855321267641e-02 
8.33918699731686e-01 9.57636412573692e-01 1.49140914770401e-02 
8.36990223487604e-01 9.46079026548449e-01 1.48401235395739e-02 
8.40061747243522e-01 9.34524154057436e-01 1.47636608852846e-02 
8.43133270999440e-01 9.22974307217926e-01 1.46847374877087e-02 
8.46204794755357e-01 9.11431998907940e-01 1.46033887004615e-02 
8.49276318511275e-01 8.99899741158643e-01 1.45196512331970e-02 
8.52347842267193e-01 8.88380043540610e-01 1.44335631260843e-02 
8.55419366023111e-01 8.76875411545708e-01 1.43451637228239e-02 
8.58490889779029e-01 8.65388344966348e-01 1.42544936422313e-02 
8.61562413534946e-01 8.53921336273886e-01 1.41615947484097e-02 
8.64633937290864e-01 8.42476868997958e-01 1.40665101195458e-02 
8.67705461046782e-01 8.31057416108558e-01 1.39692840153601e-02 
8.70776984802700e-01 8.19665438402662e-01 1.38699618432462e-02 
8.73848508558618e-01 8.08303382897221e-01 1.37685901231333e-02 
8.76920032314536e-01 7.96973681230339e-01 1.36652164511136e-02 
8.79991556070453e-01 7.85678748072458e-01 1.35598894618752e-02 
8.83063079826371e-01 7.74420979549362e-01 1.34526587899838e-02 
8.86134603582289e-01 7.63202751678813e-01 1.33435750300585e-02 
8.89206127338207e-01 7.52026418822628e-01 1.32326896958876e-02 
8.92277651094125e-01 7.40894312155965e-01 1.31200551785352e-02 
8.95349174850042e-01 7.29808738155620e-01 1.30057247034899e-02 
8.98420698605960e-01 7.18771977109064e-01 1.28897522869075e-02 
9.01492222361878e-01 7.07786281645978e-01 1.27721926910025e-02 
9.04563746117796e-01 6.96853875293972e-01 1.26531013786451e-02 
9.07635269873714e-01 6.85976951060191e-01 1.25325344672203e-02 
9.10706793629631e-01 6.75157670040448e-01 1.24105486818081e-02 
9.13778317385549e-01 6.64398160057515e-01 1.22872013077470e-02 
9.16849841141467e-01 6.53700514330133e-01 1.21625501426395e-02 
9.19921364897385e-01 6.43066790174312e-01 1.20366534478639e-02 
9.22992888653303e-01 6.32499007738402e-01 1.19095698996554e-02 
9.26064412409221e-01 6.21999148773405e-01 1.17813585398204e-02 
9.29135936165138e-01 6.11569155439936e-01 1.16520787261487e-02 
9.32207459921056e-01 6.01210929153187e-01 1.15217900825913e-02 
9.35278983676974e-01 5.90926329467220e-01 1.13905524492669e-02 
9.38350507432892e-01 5.80717172999819e-01 1.12584258323656e-02 
9.41422031188810e-01 5.70585232399132e-01 1.11254703540146e-02 
9.44493554944727e-01 5.60532235353207e-01 1.09917462021762e-02 
9.47565078700645e-01 5.50559863643530e-01 1.08573135806396e-02 
9.50636602456563e-01 5.40669752243565e-01 1.07222326591768e-02 
9.53708126212481e-01 5.30863488463251e-01 1.05865635239279e-02 
