Energy(eV)           EEDF(eV^-(3/2))      Anisotropy(eV^-(3/2))
1.03946408970568e-03 9.06688333037489e+00 8.27775252060379e-03 
3.11839226911705e-03 8.94997872723683e+00 1.09899489770894e-02 
5.19732044852842e-03 8.78091408305319e+00 1.53672913229007e-02 
7.27624862793979e-03 8.59185764886410e+00 1.84108910299521e-02 
9.35517680735116e-03 8.39682796468482e+00 2.05920811754594e-02 
1.14341049867625e-02 8.20755041625240e+00 2.23136880286592e-02 
1.35130331661739e-02 8.01991087118524e+00 2.37151809078772e-02 
1.55919613455853e-02 7.83945951042485e+00 2.48668383970258e-02 
1.76708895249966e-02 7.66251700211569e+00 2.58926427373699e-02 
1.97498177044080e-02 7.48976789985374e+00 2.67320603038379e-02 
2.18287458838194e-02 7.32201556071611e+00 2.74371104044930e-02 
2.39076740632307e-02 7.15858936001438e+00 2.80060486359467e-02 
2.59866022426421e-02 7.00090209506919e+00 2.84010239140299e-02 
2.80655304220535e-02 6.85011838447618e+00 2.86351905923365e-02 
3.01444586014648e-02 6.70720057245332e+00 2.88145614878649e-02 
3.22233867808762e-02 6.57001412614503e+00 2.90393721232797e-02 
3.43023149602876e-02 6.43695696352048e+00 2.92346728040348e-02 
3.63812431396990e-02 6.30855817437914e+00 2.93329862851006e-02 
3.84601713191103e-02 6.18526257077137e+00 2.93405390946631e-02 
4.05390994985217e-02 6.06744252492730e+00 2.93385269608753e-02 
4.26180276779331e-02 5.95363898381427e+00 2.93644638096780e-02 
4.46969558573444e-02 5.84355941874038e+00 2.93500252899590e-02 
4.67758840367558e-02 5.73743715541722e+00 2.92741202411263e-02 
4.88548122161672e-02 5.63546834535300e+00 2.91400120467449e-02 
5.09337403955785e-02 5.53781639066747e+00 2.89689779814972e-02 
5.30126685749899e-02 5.44427047908658e+00 2.87660017084015e-02 
5.50915967544013e-02 5.35492673370253e+00 2.85141690207709e-02 
5.71705249338126e-02 5.26987778591604e+00 2.82134602977145e-02 
5.92494531132240e-02 5.18919630389486e+00 2.78643236955128e-02 
6.13283812926354e-02 5.11293693441481e+00 2.74666378325287e-02 
6.34073094720467e-02 5.04113786463062e+00 2.70197233487635e-02 
6.54862376514581e-02 4.97382201571713e+00 2.65223538225645e-02 
6.75651658308695e-02 4.91099787636810e+00 2.59727673587842e-02 
6.96440940102809e-02 4.85265998087353e+00 2.54317092225031e-02 
7.17230221896922e-02 4.79810579610024e+00 2.50422780825913e-02 
7.38019503691036e-02 4.74594330536676e+00 2.47571040417543e-02 
7.58808785485150e-02 4.69619672549874e+00 2.44406222296130e-02 
7.79598067279263e-02 4.64888341114255e+00 2.40927630757731e-02 
8.00387349073377e-02 4.60401421669155e+00 2.37132704679921e-02 
8.21176630867491e-02 4.56159378064925e+00 2.33017069468500e-02 
8.41965912661604e-02 4.52162073384788e+00 2.28574594362489e-02 
8.62755194455718e-02 4.48408783280967e+00 2.23797457343790e-02 
8.83544476249832e-02 4.44898201948434e+00 2.18676220187688e-02 
9.04333758043945e-02 4.41628440863618e+00 2.13199916500423e-02 
9.25123039838059e-02 4.38597020430300e+00 2.07356155920718e-02 
9.45912321632173e-02 4.35800854702669e+00 2.01131248016278e-02 
9.66701603426287e-02 4.33236229397836e+00 1.94510349794864e-02 
9.87490885220400e-02 4.30898773469031e+00 1.87477641192971e-02 
1.00828016701451e-01 4.28783424588035e+00 1.82133658493581e-02 
1.02906944880863e-01 4.26781123537562e+00 1.79004524003013e-02 
1.04985873060274e-01 4.24879841451983e+00 1.75927232770687e-02 
1.07064801239685e-01 4.23079376906627e+00 1.72647651778833e-02 
1.09143729419097e-01 4.21379319524265e+00 1.69163379560607e-02 
1.11222657598508e-01 4.19779049976457e+00 1.65471670213227e-02 
1.13301585777920e-01 4.18277739081856e+00 1.61569458748223e-02 
1.15380513957331e-01 4.16874346032918e+00 1.57453389284045e-02 
1.17459442136742e-01 4.15567615787131e+00 1.53119846396341e-02 
1.19538370316154e-01 4.14356075664259e+00 1.48931681448420e-02 
1.21617298495565e-01 4.13225885336229e+00 1.45908304522951e-02 
1.23696226674976e-01 4.12144813404137e+00 1.43761260934245e-02 
1.25775154854388e-01 4.11112833123458e+00 1.41486078422044e-02 
1.27854083033799e-01 4.10129834560658e+00 1.39082074731314e-02 
1.29933011213211e-01 4.09195624771294e+00 1.36548459908076e-02 
1.32011939392622e-01 4.08309927810677e+00 1.33884342812862e-02 
1.34090867572033e-01 4.07472384582155e+00 1.31088738204117e-02 
1.36169795751445e-01 4.06682552528719e+00 1.28160574431472e-02 
1.38248723930856e-01 4.05939905174365e+00 1.25098701784615e-02 
1.40327652110267e-01 4.05243831522326e+00 1.21901901549582e-02 
1.42406580289679e-01 4.04593635318116e+00 1.18568895833885e-02 
1.44485508469090e-01 4.03988534186144e+00 1.15098358233918e-02 
1.46564436648501e-01 4.03427658649524e+00 1.11488925434841e-02 
1.48643364827913e-01 4.02910051043676e+00 1.07739209858977e-02 
1.50722293007324e-01 4.02434664335258e+00 1.04673666258067e-02 
1.52801221186736e-01 4.01985379905596e+00 1.02529228266448e-02 
1.54880149366147e-01 4.01559231111418e+00 1.00456010553047e-02 
1.56959077545558e-01 4.01155991863635e+00 9.82971335625381e-03 
1.59038005724970e-01 4.00775401405304e+00 9.60522035665339e-03 
1.61116933904381e-01 4.00417164170587e+00 9.37208082319542e-03 
1.63195862083792e-01 4.00080949619297e+00 9.13025195582685e-03 
1.65274790263204e-01 3.99766392048672e+00 8.87968970384461e-03 
1.67353718442615e-01 3.99473090384175e+00 8.62034910701464e-03 
1.69432646622027e-01 3.99200607951243e+00 8.37073981705609e-03 
1.71511574801438e-01 3.98946080816556e+00 8.19722832680269e-03 
1.73590502980849e-01 3.98701163620255e+00 8.08550767934340e-03 
1.75669431160261e-01 3.98465827618216e+00 7.96905095008370e-03 
1.77748359339672e-01 3.98240033374735e+00 7.84785142321421e-03 
1.79827287519083e-01 3.98023730761955e+00 7.72190172079150e-03 
1.81906215698495e-01 3.97816858955578e+00 7.59119384447912e-03 
1.83985143877906e-01 3.97619346427001e+00 7.45571921998030e-03 
1.86064072057318e-01 3.97431110931976e+00 7.31546874431146e-03 
1.88143000236729e-01 3.97252059495962e+00 7.17043283614832e-03 
1.90221928416140e-01 3.97082088396289e+00 7.02060148940820e-03 
1.92300856595552e-01 3.96921083141313e+00 6.86596433040676e-03 
1.94379784774963e-01 3.96768918446728e+00 6.70651067891749e-03 
1.96458712954374e-01 3.96625458209211e+00 6.54222961357678e-03 
1.98537641133786e-01 3.96490555477603e+00 6.37311004223892e-03 
2.00616569313197e-01 3.96364052421820e+00 6.28087535057699e-03 
2.02695497492608e-01 3.96239205380448e+00 6.29190458132657e-03 
2.04774425672020e-01 3.96114334623237e+00 6.32344834977335e-03 
2.06853353851431e-01 3.95989459056818e+00 6.35434578741304e-03 
2.08932282030843e-01 3.95864597382170e+00 6.38459780990086e-03 
2.11011210210254e-01 3.95739768094976e+00 6.41420533263699e-03 
2.13090138389665e-01 3.95614989485984e+00 6.44316927041162e-03 
2.15169066569077e-01 3.95490279641377e+00 6.47149053708182e-03 
2.17247994748488e-01 3.95365656443147e+00 6.49917004526883e-03 
2.19326922927899e-01 3.95241137569476e+00 6.52620870602053e-03 
2.21405851107311e-01 3.95116740495125e+00 6.55260742851379e-03 
2.23484779286722e-01 3.94992482491816e+00 6.57836711975369e-03 
2.25563707466134e-01 3.94868380628635e+00 6.60348868427405e-03 
2.27642635645545e-01 3.94744451772429e+00 6.62797302384518e-03 
2.29721563824956e-01 3.94620712588208e+00 6.65182103716912e-03 
2.31800492004368e-01 3.94497179539557e+00 6.67503361962396e-03 
2.33879420183779e-01 3.94373868889041e+00 6.69761166296040e-03 
2.35958348363190e-01 3.94250796698627e+00 6.71955605502986e-03 
2.38037276542602e-01 3.94127978830095e+00 6.74086767951982e-03 
2.40116204722013e-01 3.94005430945465e+00 6.76154741568557e-03 
2.42195132901424e-01 3.93883168507417e+00 6.78159613809672e-03 
2.44274061080836e-01 3.93761206779716e+00 6.80101471638176e-03 
2.46352989260247e-01 3.93639560827642e+00 6.81980401496795e-03 
2.48431917439659e-01 3.93518245518420e+00 6.83796489284784e-03 
2.50510845619070e-01 3.93397275521652e+00 6.94262188508329e-03 
2.52589773798481e-01 3.93270506720141e+00 7.16352169240485e-03 
2.54668701977893e-01 3.93135580103908e+00 7.41548793353441e-03 
2.56747630157304e-01 3.92992194009361e+00 7.67012496227002e-03 
2.58826558336715e-01 3.92840043459798e+00 7.92739514169289e-03 
2.60905486516127e-01 3.92678820270249e+00 8.18725926160419e-03 
2.62984414695538e-01 3.92508213156887e+00 8.44967650606052e-03 
2.65063342874950e-01 3.92327907851083e+00 8.71460442167423e-03 
2.67142271054361e-01 3.92137587218189e+00 8.98199888667906e-03 
2.69221199233772e-01 3.91936931381121e+00 9.25181408083243e-03 
2.71300127413184e-01 3.91725617848827e+00 9.52400245618163e-03 
2.73379055592595e-01 3.91503321649686e+00 9.79851470876668e-03 
2.75457983772006e-01 3.91269715469926e+00 1.00752997512496e-02 
2.77536911951418e-01 3.91024469797105e+00 1.03543046865747e-02 
2.79615840130829e-01 3.90767253068718e+00 1.06354747827330e-02 
2.81694768310240e-01 3.90497731825974e+00 1.09187534486130e-02 
2.83773696489652e-01 3.90215570872790e+00 1.12040822110783e-02 
2.85852624669063e-01 3.89920433440048e+00 1.14914006932893e-02 
2.87931552848475e-01 3.89611981355128e+00 1.17806465943459e-02 
2.90010481027886e-01 3.89289875216772e+00 1.20717556703280e-02 
2.92089409207297e-01 3.88953774575269e+00 1.23646617167809e-02 
2.94168337386709e-01 3.88603338117998e+00 1.26592965527052e-02 
2.96247265566120e-01 3.88238223860321e+00 1.29555900061733e-02 
2.98326193745531e-01 3.87858089341831e+00 1.32534699015892e-02 
3.00405121924943e-01 3.87462591827938e+00 1.35782648434254e-02 
3.02484050104354e-01 3.87048355285495e+00 1.39401768990460e-02 
3.04562978283766e-01 3.86613531393705e+00 1.43144593636325e-02 
3.06641906463177e-01 3.86157573751940e+00 1.46903508039544e-02 
3.08720834642588e-01 3.85679936863324e+00 1.50677176959427e-02 
3.10799762822000e-01 3.85180076607949e+00 1.54464226973646e-02 
3.12878691001411e-01 3.84657450728512e+00 1.58263246563485e-02 
3.14957619180822e-01 3.84111519328189e+00 1.62072786257721e-02 
3.17036547360234e-01 3.83541745380471e+00 1.65891358837368e-02 
3.19115475539645e-01 3.82947595250683e+00 1.69717439602827e-02 
3.21194403719056e-01 3.82328539228868e+00 1.73549466705027e-02 
3.23273331898468e-01 3.81684052073669e+00 1.77385841542618e-02 
3.25352260077879e-01 3.81013613566821e+00 1.81224929226366e-02 
3.27431188257291e-01 3.80316709077831e+00 1.85065059112584e-02 
3.29510116436702e-01 3.79592830138357e+00 1.88904525406973e-02 
3.31589044616113e-01 3.78841475025809e+00 1.92741587840087e-02 
3.33667972795525e-01 3.78062149355598e+00 1.96574472415749e-02 
3.35746900974936e-01 3.77254366681484e+00 2.00401372233588e-02 
3.37825829154347e-01 3.76417649103371e+00 2.04220448386751e-02 
3.39904757333759e-01 3.75551527881917e+00 2.08029830935516e-02 
3.41983685513170e-01 3.74655544059243e+00 2.11827619957713e-02 
3.44062613692582e-01 3.73729249085016e+00 2.15611886676351e-02 
3.46141541871993e-01 3.72772205447134e+00 2.19380674665168e-02 
3.48220470051404e-01 3.71783987306185e+00 2.23132001132286e-02 
3.50299398230816e-01 3.70764181132861e+00 2.27021946016628e-02 
3.52378326410227e-01 3.69709410580379e+00 2.31129241655685e-02 
3.54457254589638e-01 3.68617532374736e+00 2.35293704770582e-02 
3.56536182769050e-01 3.67488044963204e+00 2.39427705352510e-02 
3.58615110948461e-01 3.66320466455615e+00 2.43528547812796e-02 
3.60694039127873e-01 3.65114335570929e+00 2.47593512543667e-02 
3.62772967307284e-01 3.63869212579945e+00 2.51619858704069e-02 
3.64851895486695e-01 3.62584680242252e+00 2.55604827125815e-02 
3.66930823666107e-01 3.61260344735539e+00 2.59545643337215e-02 
3.69009751845518e-01 3.59895836575263e+00 2.63439520701118e-02 
3.71088680024929e-01 3.58490811522679e+00 2.67283663663715e-02 
3.73167608204341e-01 3.57044951479180e+00 2.71075271110175e-02 
3.75246536383752e-01 3.55557965364846e+00 2.74811539822625e-02 
3.77325464563163e-01 3.54029589979103e+00 2.78489668035700e-02 
3.79404392742575e-01 3.52459590841325e+00 2.82106859084270e-02 
3.81483320921986e-01 3.50847763009231e+00 2.85660325137529e-02 
3.83562249101398e-01 3.49193931872905e+00 2.89147291013630e-02 
3.85641177280809e-01 3.47497953922227e+00 2.92564998067993e-02 
3.87720105460220e-01 3.45759717485565e+00 2.95910708148473e-02 
3.89799033639632e-01 3.43979143437509e+00 2.99181707610008e-02 
3.91877961819043e-01 3.42156185873515e+00 3.02375311380969e-02 
3.93956889998454e-01 3.40290832749273e+00 3.05488867073143e-02 
3.96035818177866e-01 3.38383106482697e+00 3.08519759126821e-02 
3.98114746357277e-01 3.36433064516443e+00 3.11465412982201e-02 
4.00193674536689e-01 3.34440799838895e+00 3.14273391870163e-02 
4.02272602716100e-01 3.32407832171534e+00 3.16909861581825e-02 
4.04351530895511e-01 3.30335294965646e+00 3.19424465492464e-02 
4.06430459074923e-01 3.28223401432514e+00 3.21849257232748e-02 
4.08509387254334e-01 3.26072398167407e+00 3.24182153486601e-02 
4.10588315433745e-01 3.23882565373679e+00 3.26421130483529e-02 
4.12667243613157e-01 3.21654217041895e+00 3.28564227505293e-02 
4.14746171792568e-01 3.19387701082757e+00 3.30609550346859e-02 
4.16825099971979e-01 3.17083399412632e+00 3.32555274723008e-02 
4.18904028151391e-01 3.14741727990633e+00 3.34399649611566e-02 
4.20982956330802e-01 3.12363136806227e+00 3.36141000524830e-02 
4.23061884510214e-01 3.09948109816506e+00 3.37777732700356e-02 
4.25140812689625e-01 3.07497164832306e+00 3.39308334202216e-02 
4.27219740869036e-01 3.05010853352505e+00 3.40731378924356e-02 
4.29298669048448e-01 3.02489760345919e+00 3.42045529487476e-02 
4.31377597227859e-01 2.99934503980329e+00 3.43249540020871e-02 
4.33456525407270e-01 2.97345735298316e+00 3.44342258821203e-02 
4.35535453586682e-01 2.94724137839672e+00 3.45322630880125e-02 
4.37614381766093e-01 2.92070427210294e+00 3.46189700272898e-02 
4.39693309945505e-01 2.89385350597609e+00 3.46942612400515e-02 
4.41772238124916e-01 2.86669686232678e+00 3.47580616078056e-02 
4.43851166304327e-01 2.83924242799294e+00 3.48103065462332e-02 
4.45930094483739e-01 2.81149858790492e+00 3.48509421812195e-02 
4.48009022663150e-01 2.78347401813053e+00 3.48799255075347e-02 
4.50087950842561e-01 2.75517767840685e+00 3.48972245295774e-02 
4.52166879021973e-01 2.72661880416737e+00 3.49028183836438e-02 
4.54245807201384e-01 2.69780689807416e+00 3.48966974412267e-02 
4.56324735380795e-01 2.66875172106598e+00 3.48788633928971e-02 
4.58403663560207e-01 2.63946328293503e+00 3.48493293123733e-02 
4.60482591739618e-01 2.60995183244577e+00 3.48081197004268e-02 
4.62561519919030e-01 2.58022784701102e+00 3.47552705083401e-02 
4.64640448098441e-01 2.55030202194155e+00 3.46908291406700e-02 
4.66719376277852e-01 2.52018525928657e+00 3.46148544371414e-02 
4.68798304457264e-01 2.48988865628398e+00 3.45274166335489e-02 
4.70877232636675e-01 2.45942349344007e+00 3.44285973015991e-02 
4.72956160816086e-01 2.42880122225964e+00 3.43184892676876e-02 
4.75035088995498e-01 2.39803345264858e+00 3.41971965106718e-02 
4.77114017174909e-01 2.36713194001180e+00 3.40648340387521e-02 
4.79192945354320e-01 2.33610857207049e+00 3.39215277456337e-02 
4.81271873533732e-01 2.30497535542341e+00 3.37674142462138e-02 
4.83350801713143e-01 2.27374440187781e+00 3.36026406920848e-02 
4.85429729892555e-01 2.24242791457640e+00 3.34273645672132e-02 
4.87508658071966e-01 2.21103817394699e+00 3.32417534642056e-02 
4.89587586251377e-01 2.17958752350283e+00 3.30459848416340e-02 
4.91666514430789e-01 2.14808835552113e+00 3.28402457629537e-02 
4.93745442610200e-01 2.11655309662868e+00 3.26247326175860e-02 
4.95824370789611e-01 2.08499419332302e+00 3.23996508248092e-02 
4.97903298969023e-01 2.05342409745831e+00 3.21652145211400e-02 
4.99982227148434e-01 2.02185525172505e+00 3.19207028062808e-02 
5.02061155327846e-01 1.99030510228582e+00 3.16654773407782e-02 
5.04140083507257e-01 1.95879097152235e+00 3.14008947235712e-02 
5.06219011686668e-01 1.92732477717644e+00 3.11282433951326e-02 
5.08297939866080e-01 1.89591836372682e+00 3.08477697848695e-02 
5.10376868045491e-01 1.86458348918572e+00 3.05597263431466e-02 
5.12455796224902e-01 1.83333181206550e+00 3.02643711581384e-02 
5.14534724404314e-01 1.80217487854061e+00 2.99619675642687e-02 
5.16613652583725e-01 1.77112410982958e+00 2.96527837431700e-02 
5.18692580763137e-01 1.74019078982101e+00 2.93370923181097e-02 
5.20771508942548e-01 1.70938605296711e+00 2.90151699428410e-02 
5.22850437121959e-01 1.67872087246753e+00 2.86872968858573e-02 
5.24929365301371e-01 1.64820604876520e+00 2.83537566110284e-02 
5.27008293480782e-01 1.61785219837542e+00 2.80148353556024e-02 
5.29087221660193e-01 1.58766974306828e+00 2.76708217065610e-02 
5.31166149839605e-01 1.55766889942344e+00 2.73220061763097e-02 
5.33245078019016e-01 1.52785966877573e+00 2.69686807786808e-02 
5.35324006198427e-01 1.49825182756824e+00 2.66111386062209e-02 
5.37402934377839e-01 1.46885491812928e+00 2.62496734097171e-02 
5.39481862557250e-01 1.43967823988767e+00 2.58845791809061e-02 
5.41560790736662e-01 1.41073084104022e+00 2.55161497392885e-02 
5.43639718916073e-01 1.38202151068376e+00 2.51446783239492e-02 
5.45718647095484e-01 1.35355877142279e+00 2.47704571912688e-02 
5.47797575274896e-01 1.32535087246285e+00 2.43937772193765e-02 
5.49876503454307e-01 1.29740578319801e+00 2.40149275201642e-02 
5.51955431633718e-01 1.26973118730002e+00 2.36341950596601e-02 
5.54034359813130e-01 1.24233447731502e+00 2.32518642875193e-02 
5.56113287992541e-01 1.21522274977260e+00 2.28682167763530e-02 
5.58192216171953e-01 1.18840280081058e+00 2.24835308715846e-02 
5.60271144351364e-01 1.16188112231775e+00 2.20980813524781e-02 
5.62350072530775e-01 1.13566389859525e+00 2.17121391049448e-02 
5.64429000710187e-01 1.10975700353632e+00 2.13259708066929e-02 
5.66507928889598e-01 1.08416599832268e+00 2.09398386252392e-02 
5.68586857069009e-01 1.05889612963453e+00 2.05539999292609e-02 
5.70665785248421e-01 1.03395232837026e+00 2.01687070137162e-02 
5.72744713427832e-01 1.00933920887039e+00 1.97842068391189e-02 
5.74823641607244e-01 9.85061068639425e-01 1.94007407853079e-02 
5.76902569786655e-01 9.61121888558058e-01 1.90185444200022e-02 
5.78981497966066e-01 9.37525333577148e-01 1.86378472823876e-02 
5.81060426145478e-01 9.14274753883852e-01 1.82588726819353e-02 
5.83139354324889e-01 8.91373186529354e-01 1.78818375126039e-02 
5.85218282504300e-01 8.68823357506669e-01 1.75069520825344e-02 
5.87297210683712e-01 8.46627684266183e-01 1.71344199593001e-02 
5.89376138863123e-01 8.24788278655703e-01 1.67644378307289e-02 
5.91455067042534e-01 8.03306950271090e-01 1.63971953812732e-02 
5.93533995221946e-01 7.82185210202809e-01 1.60328751838620e-02 
5.95612923401357e-01 7.61424275163065e-01 1.56716526071242e-02 
5.97691851580769e-01 7.41025071977645e-01 1.53136957378364e-02 
5.99770779760180e-01 7.20988242425996e-01 1.49591653184101e-02 
6.01849707939591e-01 7.01314148412655e-01 1.46082146991924e-02 
6.03928636119003e-01 6.82002877452668e-01 1.42609898053254e-02 
6.06007564298414e-01 6.63054248453337e-01 1.39176291178711e-02 
6.08086492477825e-01 6.44467817774301e-01 1.35782636688806e-02 
6.10165420657237e-01 6.26242885547724e-01 1.32430170500539e-02 
6.12244348836648e-01 6.08378502240200e-01 1.29120054346126e-02 
6.14323277016059e-01 5.90873475437854e-01 1.25853376119775e-02 
6.16402205195471e-01 5.73726376836031e-01 1.22631150348251e-02 
6.18481133374882e-01 5.56935549414997e-01 1.19454318780711e-02 
6.20560061554294e-01 5.40499114783074e-01 1.16323751093112e-02 
6.22638989733705e-01 5.24414980668753e-01 1.13240245702329e-02 
6.24717917913116e-01 5.08680848543460e-01 1.10204530684952e-02 
6.26796846092528e-01 4.93294221356843e-01 1.07217264795621e-02 
6.28875774271939e-01 4.78252411366691e-01 1.04279038579618e-02 
6.30954702451350e-01 4.63552548045871e-01 1.01390375574383e-02 
6.33033630630762e-01 4.49191586048984e-01 9.85517335945109e-03 
6.35112558810173e-01 4.35166313221830e-01 9.57635060947622e-03 
6.37191486989585e-01 4.21473358637142e-01 9.30260236055824e-03 
6.39270415168996e-01 4.08109200640486e-01 9.03395552356050e-03 
6.41349343348407e-01 3.95070174890713e-01 8.77043102356316e-03 
6.43428271527819e-01 3.82352482379804e-01 8.51204396185844e-03 
6.45507199707230e-01 3.69952197417506e-01 8.25880378299877e-03 
