Energy(eV)           EEDF(eV^-(3/2))      Anisotropy(eV^-(3/2))
8.47128611978367e-03 7.51898319612976e-02 8.53377013933248e-06 
2.54138583593510e-02 7.51879856089598e-02 1.94200340807834e-05 
4.23564305989184e-02 7.51853619324626e-02 3.59990550390052e-05 
5.92990028384857e-02 7.51823069188212e-02 5.25604708804540e-05 
7.62415750780531e-02 7.51793918364068e-02 6.88437366258516e-05 
9.31841473176204e-02 7.51767506735828e-02 8.39489738448225e-05 
1.10126719557188e-01 7.51746622274375e-02 9.88663594083730e-05 
1.27069291796755e-01 7.51729291023452e-02 1.12929910071748e-04 
1.44011864036322e-01 7.51714565794886e-02 1.25870296048970e-04 
1.60954436275890e-01 7.51703020645254e-02 1.38337998302765e-04 
1.77897008515457e-01 7.51693811046037e-02 1.50226859494421e-04 
1.94839580755024e-01 7.51685915677311e-02 1.61158647115095e-04 
2.11782152994592e-01 7.51679233653377e-02 1.71892485654033e-04 
2.28724725234159e-01 7.51672436910183e-02 1.81466239117996e-04 
2.45667297473727e-01 7.51665581777095e-02 1.90530700195197e-04 
2.62609869713294e-01 7.51658252798313e-02 1.99211883285777e-04 
2.79552441952861e-01 7.51648952791250e-02 2.06882295251158e-04 
2.96495014192429e-01 7.51637581253456e-02 2.14025018490665e-04 
3.13437586431996e-01 7.51623881396850e-02 2.20656931401487e-04 
3.30380158671563e-01 7.51607347314409e-02 2.26727955842740e-04 
3.47322730911131e-01 7.51587884176586e-02 2.32317240351671e-04 
3.64265303150698e-01 7.51565272702804e-02 2.37445273769507e-04 
3.81207875390265e-01 7.51539166899162e-02 2.42110392606318e-04 
3.98150447629833e-01 7.51509497396155e-02 2.46339442338951e-04 
4.15093019869400e-01 7.51476273743571e-02 2.50150941474881e-04 
4.32035592108967e-01 7.51439558350333e-02 2.53569591884292e-04 
4.48978164348535e-01 7.51399325550978e-02 2.56614731572011e-04 
4.65920736588102e-01 7.51355560049773e-02 2.59305972013097e-04 
4.82863308827669e-01 7.51308256043495e-02 2.61662518414321e-04 
4.99805881067237e-01 7.51257416378332e-02 2.63701193087261e-04 
5.16748453306804e-01 7.51203095224648e-02 2.65439076794598e-04 
5.33691025546371e-01 7.51145356829338e-02 2.66895438001171e-04 
5.50633597785939e-01 7.51084226377016e-02 2.68088499361806e-04 
5.67576170025506e-01 7.51019734459133e-02 2.69034848209881e-04 
5.84518742265073e-01 7.50951916435798e-02 2.69750492075558e-04 
6.01461314504641e-01 7.50880811832631e-02 2.70250854383941e-04 
6.18403886744208e-01 7.50806463772190e-02 2.70550773051955e-04 
6.35346458983775e-01 7.50728918439389e-02 2.70664501633444e-04 
6.52289031223343e-01 7.50648224580200e-02 2.70605712746928e-04 
6.69231603462910e-01 7.50564433032809e-02 2.70387503468180e-04 
6.86174175702477e-01 7.50477596290324e-02 2.70022402513442e-04 
7.03116747942045e-01 7.50387768094023e-02 2.69521412159977e-04 
7.20059320181612e-01 7.50295024084677e-02 2.68895425738025e-04 
7.37001892421180e-01 7.50199429082848e-02 2.68156228953508e-04 
7.53944464660747e-01 7.50101038359853e-02 2.67314625057289e-04 
7.70887036900314e-01 7.49999907066201e-02 2.66380452701399e-04 
7.87829609139882e-01 7.49896089966025e-02 2.65363049348160e-04 
8.04772181379449e-01 7.49789641195081e-02 2.64271265466452e-04 
8.21714753619016e-01 7.49680614041215e-02 2.63113479015262e-04 
8.38657325858584e-01 7.49569060746195e-02 2.61897610396736e-04 
8.55599898098151e-01 7.49455032327606e-02 2.60631137653924e-04 
8.72542470337718e-01 7.49338578419837e-02 2.59321111258787e-04 
8.89485042577286e-01 7.49219747133406e-02 2.57974168973947e-04 
9.06427614816853e-01 7.49098584931263e-02 2.56596551395456e-04 
9.23370187056420e-01 7.48975136520739e-02 2.55194117820126e-04 
9.40312759295988e-01 7.48849444760006e-02 2.53772361621312e-04 
9.57255331535555e-01 7.48721550578490e-02 2.52336424849135e-04 
9.74197903775122e-01 7.48591492910469e-02 2.50891112942369e-04 
9.91140476014690e-01 7.48459308640483e-02 2.49440909722370e-04 
1.00808304825426e+00 7.48325032559612e-02 2.47951153878243e-04 
1.02502562049382e+00 7.48189275228623e-02 2.46421273023187e-04 
1.04196819273339e+00 7.48052077373164e-02 2.44894545184690e-04 
1.05891076497296e+00 7.47913464087699e-02 2.43375263366298e-04 
1.07585333721253e+00 7.47773458448463e-02 2.41866519444358e-04 
1.09279590945209e+00 7.47632081538135e-02 2.40371166007171e-04 
1.10973848169166e+00 7.47489352474353e-02 2.38891829124148e-04 
1.12668105393123e+00 7.47345288441279e-02 2.37430920568831e-04 
1.14362362617080e+00 7.47199904724243e-02 2.35990649064011e-04 
1.16056619841036e+00 7.47053214747276e-02 2.34573031405645e-04 
1.17750877064993e+00 7.46905230112640e-02 2.33180078737006e-04 
1.19445134288950e+00 7.46755960418720e-02 2.31818733047359e-04 
1.21139391512907e+00 7.46605353879789e-02 2.30514920577424e-04 
1.22833648736863e+00 7.46453132232562e-02 2.29266352542574e-04 
1.24527905960820e+00 7.46299300913308e-02 2.28050100688192e-04 
1.26222163184777e+00 7.46143863649578e-02 2.26867129215291e-04 
1.27916420408733e+00 7.45986822492337e-02 2.25718296639895e-04 
1.29610677632690e+00 7.45828177849804e-02 2.24596005597507e-04 
1.31304934856647e+00 7.45668020874111e-02 2.23477666569942e-04 
1.32999192080604e+00 7.45506597933644e-02 2.22371216598249e-04 
1.34693449304560e+00 7.45343904243168e-02 2.21299958584714e-04 
1.36387706528517e+00 7.45179933728525e-02 2.20264280539229e-04 
1.38081963752474e+00 7.45014679064251e-02 2.19264557795760e-04 
1.39776220976431e+00 7.44848131626320e-02 2.18301163122301e-04 
1.41470478200387e+00 7.44680281515458e-02 2.17374351051609e-04 
1.43164735424344e+00 7.44511117689454e-02 2.16484236871613e-04 
1.44858992648301e+00 7.44340628030409e-02 2.15630868337202e-04 
1.46553249872258e+00 7.44168799376138e-02 2.14814403713086e-04 
1.48247507096214e+00 7.43995617307735e-02 2.14035129952504e-04 
1.49941764320171e+00 7.43821066141175e-02 2.13259597260685e-04 
1.51636021544128e+00 7.43645447743244e-02 2.12447800512105e-04 
1.53330278768084e+00 7.43469110821864e-02 2.11631354491112e-04 
1.55024535992041e+00 7.43292038244733e-02 2.10848401842891e-04 
1.56718793215998e+00 7.43114212424582e-02 2.10098684159909e-04 
1.58413050439955e+00 7.42935615334868e-02 2.09381932745368e-04 
1.60107307663911e+00 7.42756228525382e-02 2.08697869130108e-04 
1.61801564887868e+00 7.42576033137733e-02 2.08046205444884e-04 
1.63495822111825e+00 7.42395009920960e-02 2.07426644702658e-04 
1.65190079335782e+00 7.42213139247139e-02 2.06838881211341e-04 
1.66884336559738e+00 7.42030401126879e-02 2.06282601090185e-04 
1.68578593783695e+00 7.41846775224585e-02 2.05757482859534e-04 
1.70272851007652e+00 7.41662240873444e-02 2.05263198068752e-04 
1.71967108231609e+00 7.41476777090059e-02 2.04799411932169e-04 
1.73661365455565e+00 7.41290362588740e-02 2.04365783972870e-04 
1.75355622679522e+00 7.41102975795387e-02 2.03961968693817e-04 
1.77049879903479e+00 7.40914594860915e-02 2.03587616287876e-04 
1.78744137127435e+00 7.40725197674158e-02 2.03242373351912e-04 
1.80438394351392e+00 7.40534761874241e-02 2.02925883564286e-04 
1.82132651575349e+00 7.40343264862449e-02 2.02637788325778e-04 
1.83826908799306e+00 7.40150683813578e-02 2.02377727375385e-04 
1.85521166023262e+00 7.39956995686779e-02 2.02145339381134e-04 
1.87215423247219e+00 7.39762177235886e-02 2.01940262509248e-04 
1.88909680471176e+00 7.39566205019226e-02 2.01762134974135e-04 
1.90603937695133e+00 7.39369055408911e-02 2.01708583616122e-04 
1.92298194919089e+00 7.39169939583469e-02 2.01796759332321e-04 
1.93992452143046e+00 7.38968698295888e-02 2.01930756425975e-04 
1.95686709367003e+00 7.38765299468506e-02 2.02094071413183e-04 
1.97380966590960e+00 7.38559710515508e-02 2.02286339437758e-04 
1.99075223814916e+00 7.38351898355140e-02 2.02507198106278e-04 
2.00769481038873e+00 7.38141829421446e-02 2.02756287817600e-04 
2.02463738262830e+00 7.37929469675552e-02 2.03033252056443e-04 
2.04157995486786e+00 7.37714784616509e-02 2.03337737663288e-04 
2.05852252710743e+00 7.37497739291691e-02 2.03669395079456e-04 
2.07546509934700e+00 7.37278298306782e-02 2.04027878559743e-04 
2.09240767158657e+00 7.37056425835362e-02 2.04406334850103e-04 
2.10935024382613e+00 7.36832135001999e-02 2.04684662895865e-04 
2.12629281606570e+00 7.36606296938913e-02 2.04868366847660e-04 
2.14323538830527e+00 7.36378885051484e-02 2.05073817936097e-04 
2.16017796054484e+00 7.36149872659889e-02 2.05300704529147e-04 
2.17712053278440e+00 7.35919233001966e-02 2.05548719828018e-04 
2.19406310502397e+00 7.35686939235994e-02 2.05830629557168e-04 
2.21100567726354e+00 7.35452866781263e-02 2.06221117157045e-04 
2.22794824950311e+00 7.35216429231063e-02 2.06707341572192e-04 
2.24489082174267e+00 7.34977592144448e-02 2.07215985005802e-04 
2.26183339398224e+00 7.34736320822568e-02 2.07746756960674e-04 
2.27877596622181e+00 7.34492580313354e-02 2.08299371767611e-04 
2.29571853846138e+00 7.34246335416021e-02 2.08873548577456e-04 
2.31266111070094e+00 7.33997550685349e-02 2.09469011329367e-04 
2.32960368294051e+00 7.33746190435835e-02 2.10085488670117e-04 
2.34654625518008e+00 7.33492218745743e-02 2.10722713900472e-04 
2.36348882741964e+00 7.33235599460974e-02 2.11380424938740e-04 
2.38043139965921e+00 7.32976296198786e-02 2.12058363979024e-04 
2.39737397189878e+00 7.32714272352101e-02 2.12756277407482e-04 
2.41431654413835e+00 7.32449491093058e-02 2.13473916339529e-04 
2.43125911637791e+00 7.32181915375601e-02 2.14211036645298e-04 
2.44820168861748e+00 7.31911507938553e-02 2.14967398493652e-04 
2.46514426085705e+00 7.31638231308942e-02 2.15742765777809e-04 
2.48208683309662e+00 7.31362047806151e-02 2.16536906015730e-04 
2.49902940533618e+00 7.31082919545174e-02 2.17393445848702e-04 
2.51597197757575e+00 7.30800482460332e-02 2.18367648959470e-04 
2.53291454981532e+00 7.30514279824204e-02 2.19416358959982e-04 
2.54985712205489e+00 7.30224261836843e-02 2.20485312418863e-04 
2.56679969429445e+00 7.29930378326656e-02 2.21574282758340e-04 
2.58374226653402e+00 7.29632578756347e-02 2.22683046441566e-04 
2.60068483877359e+00 7.29330812228821e-02 2.23811382875951e-04 
2.61762741101315e+00 7.29025027493049e-02 2.24959074316423e-04 
2.63456998325272e+00 7.28715172949916e-02 2.26125905767798e-04 
2.65151255549229e+00 7.28401196658040e-02 2.27311664887223e-04 
2.66845512773186e+00 7.28083046339584e-02 2.28516141886771e-04 
2.68539769997142e+00 7.27760669386059e-02 2.29739129436045e-04 
2.70234027221099e+00 7.27434012864126e-02 2.30980422566051e-04 
2.71928284445056e+00 7.27103023521403e-02 2.32239818573020e-04 
2.73622541669013e+00 7.26767647792281e-02 2.33517116923226e-04 
2.75316798892969e+00 7.26427831803753e-02 2.34812119159526e-04 
2.77011056116926e+00 7.26083521381270e-02 2.36124628808284e-04 
2.78705313340883e+00 7.25734662054607e-02 2.37454451287242e-04 
2.80399570564840e+00 7.25381199063773e-02 2.38760833920902e-04 
2.82093827788796e+00 7.25023392399212e-02 2.40029186660899e-04 
2.83788085012753e+00 7.24661305825339e-02 2.41298904421130e-04 
2.85482342236710e+00 7.24294890699168e-02 2.42584074715845e-04 
2.87176599460666e+00 7.23924098184918e-02 2.43884520619800e-04 
2.88870856684623e+00 7.23548879258571e-02 2.45200066806344e-04 
2.90565113908580e+00 7.23169184712468e-02 2.46530539469505e-04 
2.92259371132537e+00 7.22784965159952e-02 2.47875766247531e-04 
2.93953628356493e+00 7.22396171040055e-02 2.49235576148960e-04 
2.95647885580450e+00 7.22002752622224e-02 2.50609799479665e-04 
2.97342142804407e+00 7.21604660011103e-02 2.51998267772173e-04 
2.99036400028364e+00 7.21201843151359e-02 2.53400813716263e-04 
3.00730657252320e+00 7.20794251832559e-02 2.54762660379596e-04 
3.02424914476277e+00 7.20382273641966e-02 2.56079856967663e-04 
3.04119171700234e+00 7.19965897113810e-02 2.57405627126535e-04 
3.05813428924191e+00 7.19545078600232e-02 2.58743778592661e-04 
3.07507686148147e+00 7.19119774372718e-02 2.60094159531753e-04 
3.09201943372104e+00 7.18689940625785e-02 2.61456619106940e-04 
3.10896200596061e+00 7.18255533480732e-02 2.62831007422287e-04 
3.12590457820018e+00 7.17816508989434e-02 2.64217175469019e-04 
3.14284715043974e+00 7.17372823138189e-02 2.65614975072585e-04 
3.15978972267931e+00 7.16924431851607e-02 2.67024258840968e-04 
3.17673229491888e+00 7.16471290996558e-02 2.68444880114200e-04 
3.19367486715844e+00 7.16013356386169e-02 2.69876692916026e-04 
3.21061743939801e+00 7.15550583783866e-02 2.71319551906526e-04 
3.22756001163758e+00 7.15082928907474e-02 2.72773312335438e-04 
3.24450258387715e+00 7.14610347433368e-02 2.74237829997429e-04 
3.26144515611671e+00 7.14132795000670e-02 2.75712961188570e-04 
3.27838772835628e+00 7.13650227215507e-02 2.77198562663612e-04 
3.29533030059585e+00 7.13162599655312e-02 2.78694491594279e-04 
3.31227287283542e+00 7.12669867873190e-02 2.80200605529477e-04 
3.32921544507498e+00 7.12171987402320e-02 2.81716762356299e-04 
3.34615801731455e+00 7.11668913760425e-02 2.83242820261264e-04 
3.36310058955412e+00 7.11160602454290e-02 2.84778637693696e-04 
3.38004316179369e+00 7.10647008984328e-02 2.86324073330113e-04 
3.39698573403325e+00 7.10128088849208e-02 2.87878986038427e-04 
3.41392830627282e+00 7.09603797550530e-02 2.89443234844375e-04 
3.43087087851239e+00 7.09074090597559e-02 2.91016678898344e-04 
3.44781345075195e+00 7.08538923512005e-02 2.92599177443168e-04 
3.46475602299152e+00 7.07998251832865e-02 2.94190589782796e-04 
3.48169859523109e+00 7.07452031121315e-02 2.95790775251646e-04 
3.49864116747066e+00 7.06900216965653e-02 2.97399593185601e-04 
3.51558373971022e+00 7.06342764986302e-02 2.99016902893351e-04 
3.53252631194979e+00 7.05779630840859e-02 3.00642563627915e-04 
3.54946888418936e+00 7.05210770229204e-02 3.02276434559470e-04 
3.56641145642893e+00 7.04636138898665e-02 3.03918374749424e-04 
3.58335402866849e+00 7.04055692649226e-02 3.05568243124798e-04 
3.60029660090806e+00 7.03469387338798e-02 3.07208227681394e-04 
3.61723917314763e+00 7.02877334527490e-02 3.08821747277548e-04 
3.63418174538720e+00 7.02279638220520e-02 3.10426109019557e-04 
3.65112431762676e+00 7.01676258257569e-02 3.12037429433572e-04 
3.66806688986633e+00 7.01067154565072e-02 3.13655574159488e-04 
3.68500946210590e+00 7.00452287160937e-02 3.15280408689369e-04 
3.70195203434546e+00 6.99831616159310e-02 3.16911798347005e-04 
3.71889460658503e+00 6.99205101775396e-02 3.18549608268932e-04 
3.73583717882460e+00 6.98572704330311e-02 3.20193703385196e-04 
3.75277975106417e+00 6.97934384255987e-02 3.21843948400802e-04 
3.76972232330373e+00 6.97290102100124e-02 3.23500207778283e-04 
3.78666489554330e+00 6.96639818531180e-02 3.25162345720912e-04 
3.80360746778287e+00 6.95983494343409e-02 3.26830226155567e-04 
3.82055004002244e+00 6.95321090461945e-02 3.28503712716841e-04 
3.83749261226200e+00 6.94652567947924e-02 3.30182668731541e-04 
3.85443518450157e+00 6.93977888003658e-02 3.31866957203695e-04 
3.87137775674114e+00 6.93297011977843e-02 3.33556440800407e-04 
3.88832032898071e+00 6.92609901370815e-02 3.35250981837233e-04 
3.90526290122027e+00 6.91916517839851e-02 3.36950442264823e-04 
3.92220547345984e+00 6.91216823204507e-02 3.38654683656582e-04 
3.93914804569941e+00 6.90510779451996e-02 3.40363567195761e-04 
3.95609061793897e+00 6.89798348742619e-02 3.42076953663188e-04 
3.97303319017854e+00 6.89079493415225e-02 3.43794703426008e-04 
3.98997576241811e+00 6.88354175992718e-02 3.45516676426736e-04 
4.00691833465768e+00 6.87622359187599e-02 3.47303335246408e-04 
4.02386090689724e+00 6.86883435530426e-02 3.49160295127610e-04 
4.04080347913681e+00 6.86137303782210e-02 3.51027644576725e-04 
4.05774605137638e+00 6.85383920177184e-02 3.52899180786655e-04 
4.07468862361595e+00 6.84623241174459e-02 3.54774743512598e-04 
4.09163119585551e+00 6.83855223465538e-02 3.56654171778947e-04 
4.10857376809508e+00 6.83079823981868e-02 3.58537303870410e-04 
4.12551634033465e+00 6.82296999902452e-02 3.60423977324341e-04 
4.14245891257422e+00 6.81506708661515e-02 3.62314028923138e-04 
4.15940148481378e+00 6.80708907956213e-02 3.64207294687689e-04 
4.17634405705335e+00 6.79903555754394e-02 3.66103609870730e-04 
4.19328662929292e+00 6.79090610302415e-02 3.68002808950551e-04 
4.21022920153248e+00 6.78270030132997e-02 3.69904725625809e-04 
4.22717177377205e+00 6.77441774073140e-02 3.71809192810202e-04 
4.24411434601162e+00 6.76605801252071e-02 3.73716042628186e-04 
4.26105691825119e+00 6.75762071109251e-02 3.75625106410885e-04 
4.27799949049075e+00 6.74910543402422e-02 3.77536214691914e-04 
4.29494206273032e+00 6.74051178215697e-02 3.79449197204286e-04 
4.31188463496989e+00 6.73183935967699e-02 3.81363882877969e-04 
4.32882720720946e+00 6.72308777419739e-02 3.83280099837198e-04 
4.34576977944902e+00 6.71425663684037e-02 3.85197675399001e-04 
4.36271235168859e+00 6.70534556231988e-02 3.87116436071428e-04 
4.37965492392816e+00 6.69635416902460e-02 3.89036207552388e-04 
4.39659749616773e+00 6.68728207910140e-02 3.90956814729742e-04 
4.41354006840729e+00 6.67812891853915e-02 3.92878081680880e-04 
4.43048264064686e+00 6.66889431725287e-02 3.94799831672993e-04 
4.44742521288643e+00 6.65957790916830e-02 3.96721887164134e-04 
4.46436778512600e+00 6.65017933230678e-02 3.98644069804367e-04 
4.48131035736556e+00 6.64069822887048e-02 4.00566200437594e-04 
4.49825292960513e+00 6.63113424532798e-02 4.02449996176337e-04 
4.51519550184470e+00 6.62149096955199e-02 4.04237550143065e-04 
4.53213807408426e+00 6.61177410573170e-02 4.05966781495584e-04 
4.54908064632383e+00 6.60198340235686e-02 4.07694948498328e-04 
4.56602321856340e+00 6.59211861183747e-02 4.09421898324646e-04 
4.58296579080297e+00 6.58217949056374e-02 4.11147477680775e-04 
4.59990836304253e+00 6.57216579896612e-02 4.12871532808882e-04 
4.61685093528210e+00 6.56207730157541e-02 4.14593909490478e-04 
4.63379350752167e+00 6.55191376708303e-02 4.16314453050102e-04 
4.65073607976124e+00 6.54167496840137e-02 4.18033008358993e-04 
4.66767865200080e+00 6.53136068272414e-02 4.19749419839784e-04 
4.68462122424037e+00 6.52097069158693e-02 4.21463531470941e-04 
4.70156379647994e+00 6.51050478092767e-02 4.23175186791954e-04 
4.71850636871951e+00 6.49996274114726e-02 4.24884228908259e-04 
4.73544894095907e+00 6.48934436717020e-02 4.26590500496905e-04 
4.75239151319864e+00 6.47864945850521e-02 4.28293843812658e-04 
4.76933408543821e+00 6.46787781930593e-02 4.29994100694000e-04 
4.78627665767777e+00 6.45702925843161e-02 4.31691112570131e-04 
4.80321922991734e+00 6.44610358950769e-02 4.33384720467219e-04 
4.82016180215691e+00 6.43510063098659e-02 4.35074765015944e-04 
4.83710437439648e+00 6.42402020620822e-02 4.36761086459018e-04 
4.85404694663604e+00 6.41286214346062e-02 4.38443524658639e-04 
4.87098951887561e+00 6.40162627604050e-02 4.40121919105060e-04 
4.88793209111518e+00 6.39031244231370e-02 4.41796108924638e-04 
4.90487466335475e+00 6.37892048577560e-02 4.43465932888740e-04 
4.92181723559431e+00 6.36745025511143e-02 4.45131229422930e-04 
4.93875980783388e+00 6.35590160425645e-02 4.46791836615891e-04 
4.95570238007345e+00 6.34427439245615e-02 4.48447592229403e-04 
4.97264495231302e+00 6.33256848432612e-02 4.50098333708325e-04 
4.98958752455258e+00 6.32078374991197e-02 4.51743898190611e-04 
5.00653009679215e+00 6.30892006474899e-02 4.53473804150314e-04 
5.02347266903172e+00 6.29696727577195e-02 4.55298755599076e-04 
5.04041524127129e+00 6.28492389835618e-02 4.57129388412868e-04 
5.05735781351085e+00 6.27278974987045e-02 4.58953963320202e-04 
5.07430038575042e+00 6.26056465466788e-02 4.60772279757024e-04 
5.09124295798999e+00 6.24824844417393e-02 4.62584136657488e-04 
5.10818553022955e+00 6.23584095697420e-02 4.64389332470881e-04 
5.12512810246912e+00 6.22334203890196e-02 4.66187665179166e-04 
5.14207067470869e+00 6.21075154312546e-02 4.67978932315055e-04 
5.15901324694826e+00 6.19806933023490e-02 4.69762930980058e-04 
5.17595581918782e+00 6.18529526832924e-02 4.71539457863159e-04 
5.19289839142739e+00 6.17242923310249e-02 4.73308309260217e-04 
5.20984096366696e+00 6.15947110792986e-02 4.75069281093370e-04 
5.22678353590653e+00 6.14642078395340e-02 4.76822168931176e-04 
5.24372610814609e+00 6.13327816016730e-02 4.78566768009153e-04 
5.26066868038566e+00 6.12004314350280e-02 4.80302873250365e-04 
