Energy(eV)           EEDF(eV^-(3/2))      Anisotropy(eV^-(3/2))
2.16097118757533e-03 1.03432075733540e+00 1.40546885515803e-04 
6.48291356272600e-03 1.03396851830192e+00 2.26572737853761e-04 
1.08048559378767e-02 1.03347239635950e+00 3.30162439114048e-04 
1.51267983130273e-02 1.03291625351272e+00 4.07424258856473e-04 
1.94487406881780e-02 1.03233842614755e+00 4.66548079931216e-04 
2.37706830633287e-02 1.03176423213765e+00 5.09778025112046e-04 
2.80926254384793e-02 1.03121523229031e+00 5.43929776544823e-04 
3.24145678136300e-02 1.03068405885001e+00 5.70797010646494e-04 
3.67365101887807e-02 1.03018484534464e+00 5.88193093659296e-04 
4.10584525639313e-02 1.02971913340128e+00 6.00670566446630e-04 
4.53803949390820e-02 1.02928479747007e+00 6.07522114424816e-04 
4.97023373142327e-02 1.02888628997474e+00 6.08042645275550e-04 
5.40242796893834e-02 1.02852321906028e+00 6.05562034372459e-04 
5.83462220645340e-02 1.02819143627811e+00 5.99205023649099e-04 
6.26681644396847e-02 1.02789337170175e+00 5.90705399068940e-04 
6.69901068148354e-02 1.02762156253661e+00 5.80698166890888e-04 
7.13120491899860e-02 1.02737824747155e+00 5.68037350739935e-04 
7.56339915651367e-02 1.02715853330898e+00 5.54612070027122e-04 
7.99559339402874e-02 1.02696211326168e+00 5.38908747083933e-04 
8.42778763154380e-02 1.02678689103204e+00 5.22652335899903e-04 
8.85998186905887e-02 1.02663049206492e+00 5.04995840426584e-04 
9.29217610657394e-02 1.02649243944664e+00 4.87327672431246e-04 
9.72437034408900e-02 1.02636901743653e+00 4.69680542283966e-04 
1.01565645816041e-01 1.02626039480339e+00 4.51330565776925e-04 
1.05887588191191e-01 1.02616385449883e+00 4.33368704706602e-04 
1.10209530566342e-01 1.02607898299258e+00 4.14665976783415e-04 
1.14531472941493e-01 1.02600427912509e+00 3.96587213031134e-04 
1.18853415316643e-01 1.02593853084669e+00 3.78377588835352e-04 
1.23175357691794e-01 1.02588109206246e+00 3.61198275049039e-04 
1.27497300066945e-01 1.02583019969644e+00 3.44774870547824e-04 
1.31819242442095e-01 1.02578575249232e+00 3.27843601775934e-04 
1.36141184817246e-01 1.02574681942128e+00 3.10836888729844e-04 
1.40463127192397e-01 1.02571319336451e+00 2.93850485241382e-04 
1.44785069567547e-01 1.02568396510429e+00 2.78181636626234e-04 
1.49107011942698e-01 1.02565854571179e+00 2.63278848998168e-04 
1.53428954317849e-01 1.02563643549319e+00 2.50628164423855e-04 
1.57750896692999e-01 1.02561667418412e+00 2.39629757437107e-04 
1.62072839068150e-01 1.02559921222827e+00 2.27646137775627e-04 
1.66394781443301e-01 1.02558398264787e+00 2.14678637182804e-04 
1.70716723818451e-01 1.02557090104208e+00 2.02502242258404e-04 
1.75038666193602e-01 1.02555942254647e+00 1.92397586966624e-04 
1.79360608568753e-01 1.02554927651253e+00 1.83149544995122e-04 
1.83682550943903e-01 1.02554029909366e+00 1.74921952846840e-04 
1.88004493319054e-01 1.02553224045352e+00 1.67357019896486e-04 
1.92326435694205e-01 1.02552506470450e+00 1.61048355687446e-04 
1.96648378069355e-01 1.02551844549651e+00 1.56180679572957e-04 
2.00970320444506e-01 1.02551237685648e+00 1.51882577492628e-04 
2.05292262819657e-01 1.02550670289793e+00 1.48638390228840e-04 
2.09614205194807e-01 1.02550136700281e+00 1.46036221445618e-04 
2.13936147569958e-01 1.02549629382205e+00 1.44522774617240e-04 
2.18258089945109e-01 1.02549137803440e+00 1.43750912881563e-04 
2.22580032320259e-01 1.02548660694508e+00 1.44108124935848e-04 
2.26901974695410e-01 1.02548183216343e+00 1.45536707132553e-04 
2.31223917070561e-01 1.02547705629127e+00 1.47788783300532e-04 
2.35545859445711e-01 1.02547216854525e+00 1.51135304015491e-04 
2.39867801820862e-01 1.02546713580316e+00 1.55259339834344e-04 
2.44189744196013e-01 1.02546188871115e+00 1.60522860382509e-04 
2.48511686571163e-01 1.02545634279629e+00 1.66580215454372e-04 
2.52833628946314e-01 1.02545046807095e+00 1.73657922706575e-04 
2.57155571321465e-01 1.02544414512435e+00 1.81605033254478e-04 
2.61477513696615e-01 1.02543735224888e+00 1.90487703972088e-04 
2.65799456071766e-01 1.02542995551553e+00 2.00420051139087e-04 
2.70121398446917e-01 1.02542189958847e+00 2.11160196956292e-04 
2.74443340822067e-01 1.02541307774364e+00 2.22964946515003e-04 
2.78765283197218e-01 1.02540337904516e+00 2.35624591841051e-04 
2.83087225572369e-01 1.02539271473362e+00 2.49564723947067e-04 
2.87409167947519e-01 1.02538088645107e+00 2.64544103052085e-04 
2.91731110322670e-01 1.02536781911844e+00 2.79858983237433e-04 
2.96053052697821e-01 1.02535343566075e+00 2.95509210486783e-04 
3.00374995072971e-01 1.02533765700845e+00 3.12601228474391e-04 
3.04696937448122e-01 1.02532017299778e+00 3.31856171098213e-04 
3.09018879823273e-01 1.02530070380092e+00 3.52242202879994e-04 
3.13340822198423e-01 1.02527911851127e+00 3.73065508705333e-04 
3.17662764573574e-01 1.02525528283184e+00 3.94325748107534e-04 
3.21984706948725e-01 1.02522905907937e+00 4.16022567935079e-04 
3.26306649323875e-01 1.02520030618895e+00 4.38155599587069e-04 
3.30628591699026e-01 1.02516887971890e+00 4.60724456602834e-04 
3.34950534074177e-01 1.02513463185609e+00 4.83728732503430e-04 
3.39272476449327e-01 1.02509741142160e+00 5.07167998854156e-04 
3.43594418824478e-01 1.02505706387686e+00 5.31041803483155e-04 
3.47916361199629e-01 1.02501343133021e+00 5.55379766488831e-04 
3.52238303574779e-01 1.02496634291351e+00 5.81854754288267e-04 
3.56560245949930e-01 1.02491507979064e+00 6.10349297398870e-04 
3.60882188325081e-01 1.02485942274948e+00 6.39355223863513e-04 
3.65204130700231e-01 1.02479914793093e+00 6.68871727009690e-04 
3.69526073075382e-01 1.02473402684282e+00 6.98897953903823e-04 
3.73848015450533e-01 1.02466382637478e+00 7.29433002825867e-04 
3.78169957825683e-01 1.02458830881409e+00 7.60475920813489e-04 
3.82491900200834e-01 1.02450723186258e+00 7.92025701280525e-04 
3.86813842575985e-01 1.02442034865452e+00 8.24081281658463e-04 
3.91135784951135e-01 1.02432740777569e+00 8.56641541058496e-04 
3.95457727326286e-01 1.02422815328353e+00 8.89705297963792e-04 
3.99779669701437e-01 1.02412232472852e+00 9.23639534335000e-04 
4.04101612076587e-01 1.02400948581143e+00 9.58884308855356e-04 
4.08423554451738e-01 1.02388913624915e+00 9.95080979989390e-04 
4.12745496826889e-01 1.02376097328106e+00 1.03180864005133e-03 
4.17067439202039e-01 1.02362468913253e+00 1.06906559704079e-03 
4.21389381577190e-01 1.02347997104782e+00 1.10685007339326e-03 
4.25711323952341e-01 1.02332650132461e+00 1.14516020319217e-03 
4.30033266327491e-01 1.02316395735042e+00 1.18399402935573e-03 
4.34355208702642e-01 1.02299201164088e+00 1.22334950082227e-03 
4.38677151077793e-01 1.02281033187990e+00 1.26322446973071e-03 
4.42999093452943e-01 1.02261858096192e+00 1.30361668857846e-03 
4.47321035828094e-01 1.02241641703606e+00 1.34452380736882e-03 
4.51642978203245e-01 1.02220349355252e+00 1.38594337075555e-03 
4.55964920578395e-01 1.02197945931103e+00 1.42787281516809e-03 
4.60286862953546e-01 1.02174395851156e+00 1.47030946592445e-03 
4.64608805328697e-01 1.02149663080732e+00 1.51325053433787e-03 
4.68930747703847e-01 1.02123711136006e+00 1.55669311480995e-03 
4.73252690078998e-01 1.02096503089779e+00 1.60063418192238e-03 
4.77574632454149e-01 1.02068001577495e+00 1.64507058751874e-03 
4.81896574829299e-01 1.02038168803506e+00 1.68999905777500e-03 
4.86218517204450e-01 1.02006966547600e+00 1.73541619027301e-03 
4.90540459579601e-01 1.01974356171781e+00 1.78131845107584e-03 
4.94862401954752e-01 1.01940298627332e+00 1.82770217178452e-03 
4.99184344329902e-01 1.01904754462140e+00 1.87425527577416e-03 
5.03506286705053e-01 1.01867707475338e+00 1.92029491579233e-03 
5.07828229080204e-01 1.01829172179115e+00 1.96612511416083e-03 
5.12150171455354e-01 1.01789111682105e+00 2.01239171624514e-03 
5.16472113830505e-01 1.01747488768469e+00 2.05909073979564e-03 
5.20794056205655e-01 1.01704265905450e+00 2.10621806949241e-03 
5.25115998580806e-01 1.01659405251180e+00 2.15376945450462e-03 
5.29437940955957e-01 1.01612868662750e+00 2.20174050606170e-03 
5.33759883331107e-01 1.01564617704544e+00 2.25012669504206e-03 
5.38081825706258e-01 1.01514613656832e+00 2.29892334957897e-03 
5.42403768081409e-01 1.01462817524643e+00 2.34812565268363e-03 
5.46725710456559e-01 1.01409190046906e+00 2.39772863989571e-03 
5.51047652831710e-01 1.01353691705875e+00 2.44772719695001e-03 
5.55369595206861e-01 1.01296282736833e+00 2.49811605747115e-03 
5.59691537582012e-01 1.01236923138081e+00 2.54888980070212e-03 
5.64013479957162e-01 1.01175572681223e+00 2.60004284925904e-03 
5.68335422332313e-01 1.01112190921736e+00 2.65156946691757e-03 
5.72657364707464e-01 1.01046737209840e+00 2.70346375643996e-03 
5.76979307082614e-01 1.00979170701669e+00 2.75571965743826e-03 
5.81301249457765e-01 1.00909450370744e+00 2.80833094427689e-03 
5.85623191832916e-01 1.00837535019745e+00 2.86129122402158e-03 
5.89945134208066e-01 1.00763383292601e+00 2.91459393443384e-03 
5.94267076583217e-01 1.00686953686879e+00 2.96823234201110e-03 
5.98589018958367e-01 1.00608204566500e+00 3.02219954008341e-03 
6.02910961333518e-01 1.00527094174756e+00 3.07648844696554e-03 
6.07232903708669e-01 1.00443580647650e+00 3.13109180416203e-03 
6.11554846083819e-01 1.00357622027556e+00 3.18600217463534e-03 
6.15876788458970e-01 1.00269176277197e+00 3.24121194113770e-03 
6.20198730834121e-01 1.00178201293943e+00 3.29671330460976e-03 
6.24520673209272e-01 1.00084654924436e+00 3.35249828264801e-03 
6.28842615584422e-01 9.99884949795334e-01 3.40855870804391e-03 
6.33164557959573e-01 9.98896792495803e-01 3.46488622740088e-03 
6.37486500334724e-01 9.97881655200011e-01 3.52147229982932e-03 
6.41808442709874e-01 9.96839115872200e-01 3.57830819572488e-03 
6.46130385085025e-01 9.95768752749039e-01 3.63538499563068e-03 
6.50452327460176e-01 9.94670144505295e-01 3.69269358918813e-03 
6.54774269835326e-01 9.93542870422741e-01 3.75022467418211e-03 
6.59096212210477e-01 9.92386510562278e-01 3.80796875567761e-03 
6.63418154585628e-01 9.91200645939276e-01 3.86591614525366e-03 
6.67740096960778e-01 9.89984858702105e-01 3.92405696034610e-03 
6.72062039335929e-01 9.88738732313833e-01 3.98238112369162e-03 
6.76383981711079e-01 9.87461851737089e-01 4.04087836287630e-03 
6.80705924086230e-01 9.86153803622035e-01 4.09953821000199e-03 
6.85027866461381e-01 9.84814176497446e-01 4.15835000146308e-03 
6.89349808836532e-01 9.83442560964847e-01 4.21730287784310e-03 
6.93671751211682e-01 9.82038549895677e-01 4.27638578393649e-03 
6.97993693586833e-01 9.80601738631435e-01 4.33552412435191e-03 
7.02315635961984e-01 9.79131810380924e-01 4.39299496614112e-03 
7.06637578337134e-01 9.77630693336233e-01 4.44887786083893e-03 
7.10959520712285e-01 9.76098049446550e-01 4.50482917072902e-03 
7.15281463087436e-01 9.74533543648628e-01 4.56083836819690e-03 
7.19603405462586e-01 9.72936844038824e-01 4.61689476803586e-03 
7.23925347837737e-01 9.71307622047068e-01 4.67298752829690e-03 
7.28247290212888e-01 9.69645552612709e-01 4.72910565125635e-03 
7.32569232588038e-01 9.67950314362188e-01 4.78523798449843e-03 
7.36891174963189e-01 9.66221589788478e-01 4.84137322211316e-03 
7.41213117338340e-01 9.64459065432222e-01 4.89749990600949e-03 
7.45535059713490e-01 9.62662432064518e-01 4.95360642735200e-03 
7.49857002088641e-01 9.60831384871267e-01 5.00968102812158e-03 
7.54178944463792e-01 9.58965623639028e-01 5.06571180279938e-03 
7.58500886838942e-01 9.57064852942295e-01 5.12168670017711e-03 
7.62822829214093e-01 9.55128782332126e-01 5.17759352529431e-03 
7.67144771589244e-01 9.53157126526037e-01 5.23341994151074e-03 
7.71466713964394e-01 9.51149605599081e-01 5.28915347270461e-03 
7.75788656339545e-01 9.49105945176028e-01 5.34478150560688e-03 
7.80110598714696e-01 9.47025876624553e-01 5.40029129227375e-03 
7.84432541089846e-01 9.44909137249330e-01 5.45566995268971e-03 
7.88754483464997e-01 9.42755470486953e-01 5.51090447751214e-03 
7.93076425840148e-01 9.40564626101576e-01 5.56598173095726e-03 
7.97398368215298e-01 9.38336360381155e-01 5.62088845382335e-03 
8.01720310590449e-01 9.36070436334214e-01 5.67511868740809e-03 
8.06042252965600e-01 9.33767426201928e-01 5.72861165649868e-03 
8.10364195340750e-01 9.31427211604427e-01 5.78183991417973e-03 
8.14686137715901e-01 9.29049590713356e-01 5.83484546107575e-03 
8.19008080091052e-01 9.26634368908296e-01 5.88761503805230e-03 
8.23330022466202e-01 9.24181358960631e-01 5.94013529127315e-03 
8.27651964841353e-01 9.21690381217155e-01 5.99239277600545e-03 
8.31973907216504e-01 9.19161263783321e-01 6.04437396055686e-03 
8.36295849591654e-01 9.16593842706006e-01 6.09606523034744e-03 
8.40617791966805e-01 9.13987962155675e-01 6.14745289211804e-03 
8.44939734341956e-01 9.11343474607799e-01 6.19852317827290e-03 
8.49261676717106e-01 9.08660241023431e-01 6.24926225135627e-03 
8.53583619092257e-01 9.05938131028779e-01 6.29965620866454e-03 
8.57905561467408e-01 9.03177023093662e-01 6.34969108699077e-03 
8.62227503842558e-01 9.00376804708706e-01 6.39935286750578e-03 
8.66549446217709e-01 8.97537372561145e-01 6.44862748077045e-03 
8.70871388592860e-01 8.94658632709088e-01 6.49750081187835e-03 
8.75193330968010e-01 8.91740500754104e-01 6.54595870573031e-03 
8.79515273343161e-01 8.88782902011996e-01 6.59398697244051e-03 
8.83837215718312e-01 8.85785771681598e-01 6.64157139287208e-03 
8.88159158093462e-01 8.82749055011462e-01 6.68869772429721e-03 
8.92481100468613e-01 8.79672707464284e-01 6.73535170618310e-03 
8.96803042843764e-01 8.76556694878909e-01 6.78151906610376e-03 
9.01124985218914e-01 8.73400993629774e-01 6.82718552577541e-03 
9.05446927594065e-01 8.70205590783628e-01 6.87233680720792e-03 
9.09768869969216e-01 8.66970484253372e-01 6.91695863897751e-03 
9.14090812344366e-01 8.63695682948868e-01 6.96103676261600e-03 
9.18412754719517e-01 8.60381206924556e-01 7.00455693910998e-03 
9.22734697094668e-01 8.57027087523721e-01 7.04750495551188e-03 
9.27056639469818e-01 8.53633367519250e-01 7.08986663166036e-03 
9.31378581844969e-01 8.50200101250718e-01 7.13162782700552e-03 
9.35700524220120e-01 8.46727354757647e-01 7.17277444753283e-03 
9.40022466595270e-01 8.43215205908767e-01 7.21329245278903e-03 
9.44344408970421e-01 8.39663744527130e-01 7.25316786300013e-03 
9.48666351345572e-01 8.36073072510909e-01 7.29238676628047e-03 
9.52988293720722e-01 8.32443303949716e-01 7.33093532593150e-03 
9.57310236095873e-01 8.28774565236289e-01 7.36879978782248e-03 
9.61632178471024e-01 8.25066995173378e-01 7.40596648784960e-03 
9.65954120846174e-01 8.21320745075678e-01 7.44242185947019e-03 
9.70276063221325e-01 8.17535978866639e-01 7.47815244130823e-03 
9.74598005596476e-01 8.13712873170004e-01 7.51314488482377e-03 
9.78919947971626e-01 8.09851617395922e-01 7.54738596204353e-03 
9.83241890346777e-01 8.05952413821459e-01 7.58086257334699e-03 
9.87563832721928e-01 8.02015477665383e-01 7.61356175530505e-03 
9.91885775097078e-01 7.98041037157038e-01 7.64547068856196e-03 
9.96207717472229e-01 7.94029333599189e-01 7.67657670575442e-03 
1.00052965984738e+00 7.89980621424664e-01 7.70417014261099e-03 
1.00485160222253e+00 7.85901053852009e-01 7.72667263125252e-03 
1.00917354459768e+00 7.81794491613342e-01 7.74682585899361e-03 
1.01349548697283e+00 7.77661227303281e-01 7.76626571152862e-03 
1.01781742934798e+00 7.73501561788971e-01 7.78498511005095e-03 
1.02213937172313e+00 7.69315804189048e-01 7.80297712825439e-03 
1.02646131409828e+00 7.65104271848784e-01 7.82023499648816e-03 
1.03078325647343e+00 7.60867290311377e-01 7.83675210588750e-03 
1.03510519884858e+00 7.56605193285348e-01 7.85252201247151e-03 
1.03942714122374e+00 7.52318322608010e-01 7.86753844121204e-03 
1.04374908359889e+00 7.48007028204980e-01 7.88179529006583e-03 
1.04807102597404e+00 7.43671668045694e-01 7.89528663396541e-03 
1.05239296834919e+00 7.39312608094913e-01 7.90800672877369e-03 
1.05671491072434e+00 7.34930222260175e-01 7.91995001519060e-03 
1.06103685309949e+00 7.30524892335187e-01 7.93111112261017e-03 
1.06535879547464e+00 7.26097007939123e-01 7.94148487292819e-03 
1.06968073784979e+00 7.21646966451818e-01 7.95106628429622e-03 
1.07400268022494e+00 7.17175172944839e-01 7.95985057481451e-03 
1.07832462260009e+00 7.12682040108420e-01 7.96783316616632e-03 
1.08264656497524e+00 7.08167988174250e-01 7.97500968718984e-03 
1.08696850735039e+00 7.03633444834107e-01 7.98137597737664e-03 
1.09129044972554e+00 6.99078845154336e-01 7.98692809030349e-03 
1.09561239210069e+00 6.94504631486163e-01 7.99166229699141e-03 
1.09993433447584e+00 6.89911253371852e-01 7.99557508918361e-03 
1.10425627685100e+00 6.85299167446703e-01 7.99866318254525e-03 
1.10857821922615e+00 6.80668837336904e-01 8.00092351978002e-03 
1.11290016160130e+00 6.76020733553242e-01 8.00235327365739e-03 
1.11722210397645e+00 6.71355333380693e-01 8.00294984995269e-03 
1.12154404635160e+00 6.66673120763893e-01 8.00271089029149e-03 
1.12586598872675e+00 6.61974586188528e-01 8.00163427490015e-03 
1.13018793110190e+00 6.57260226558651e-01 7.99971812525605e-03 
1.13450987347705e+00 6.52530545069960e-01 7.99696080663412e-03 
1.13883181585220e+00 6.47786051079060e-01 7.99336093055051e-03 
1.14315375822735e+00 6.43027259968747e-01 7.98891735709574e-03 
1.14747570060250e+00 6.38254693009346e-01 7.98362919715907e-03 
1.15179764297765e+00 6.33468877216141e-01 7.97749581453681e-03 
1.15611958535280e+00 6.28670345202950e-01 7.97051682792432e-03 
1.16044152772795e+00 6.23859635031866e-01 7.96269211278845e-03 
1.16476347010311e+00 6.19037290059249e-01 7.95402180311880e-03 
1.16908541247826e+00 6.14203858777982e-01 7.94450629305333e-03 
1.17340735485341e+00 6.09359894656081e-01 7.93414623837636e-03 
1.17772929722856e+00 6.04505955971697e-01 7.92294255788721e-03 
1.18205123960371e+00 5.99642605644578e-01 7.91089643463602e-03 
1.18637318197886e+00 5.94770411064060e-01 7.89800931702685e-03 
1.19069512435401e+00 5.89889943913654e-01 7.88428291978211e-03 
1.19501706672916e+00 5.85001779992302e-01 7.86971922476821e-03 
1.19933900910431e+00 5.80106499032372e-01 7.85436780333892e-03 
1.20366095147946e+00 5.75204559058270e-01 7.83831806599565e-03 
1.20798289385461e+00 5.70296313456304e-01 7.82152113559478e-03 
1.21230483622976e+00 5.65382357771609e-01 7.80388887864066e-03 
1.21662677860491e+00 5.60463290884527e-01 7.78542455000874e-03 
1.22094872098006e+00 5.55539714810541e-01 7.76613167893019e-03 
1.22527066335521e+00 5.50612234497338e-01 7.74601406885601e-03 
1.22959260573036e+00 5.45681457619116e-01 7.72507579716643e-03 
1.23391454810552e+00 5.40747994368232e-01 7.70332121472126e-03 
1.23823649048067e+00 5.35812457244297e-01 7.68075494525129e-03 
1.24255843285582e+00 5.30875460840831e-01 7.65738188459001e-03 
1.24688037523097e+00 5.25937621629588e-01 7.63320719974468e-03 
1.25120231760612e+00 5.20999557742663e-01 7.60823632780472e-03 
1.25552425998127e+00 5.16061888752506e-01 7.58247497468856e-03 
1.25984620235642e+00 5.11125235449961e-01 7.55592911372593e-03 
1.26416814473157e+00 5.06190219620451e-01 7.52860498407794e-03 
1.26849008710672e+00 5.01257463818441e-01 7.50050908899409e-03 
1.27281202948187e+00 4.96327591140301e-01 7.47164819390404e-03 
1.27713397185702e+00 4.91401224995708e-01 7.44202932434550e-03 
1.28145591423217e+00 4.86478988877714e-01 7.41165976372955e-03 
1.28577785660732e+00 4.81561506131621e-01 7.38054705094275e-03 
1.29009979898247e+00 4.76649399722799e-01 7.34869897778501e-03 
1.29442174135763e+00 4.71743292003585e-01 7.31612358624641e-03 
1.29874368373278e+00 4.66843804479409e-01 7.28282916562248e-03 
1.30306562610793e+00 4.61951557574290e-01 7.24882424946842e-03 
1.30738756848308e+00 4.57067170395846e-01 7.21411761239390e-03 
1.31170951085823e+00 4.52191260499969e-01 7.17871826669968e-03 
1.31603145323338e+00 4.47324443655305e-01 7.14263545885684e-03 
1.32035339560853e+00 4.42467333607703e-01 7.10587866583203e-03 
1.32467533798368e+00 4.37620541844770e-01 7.06845759125749e-03 
1.32899728035883e+00 4.32784677360698e-01 7.03038216144925e-03 
1.33331922273398e+00 4.27960346421502e-01 6.99166252127674e-03 
1.33764116510913e+00 4.23148152330836e-01 6.95230902988317e-03 
1.34196310748428e+00 4.18348695196532e-01 6.91233225626077e-03 
