Energy(eV)           EEDF(eV^-(3/2))      Anisotropy(eV^-(3/2))
8.55169679058157e-04 4.92777726808305e+01 5.13885238053965e-02 
2.56550903717447e-03 4.78955189067303e+01 6.60153248857086e-02 
4.27584839529078e-03 4.62812346828664e+01 8.39138095105642e-02 
5.98618775340710e-03 4.45400754978956e+01 9.47804834481083e-02 
7.69652711152341e-03 4.27658266744174e+01 1.02069511554826e-01 
9.40686646963973e-03 4.09989581170636e+01 1.07213179715852e-01 
1.11172058277560e-02 3.92723179074031e+01 1.10916391831243e-01 
1.28275451858724e-02 3.75938329827775e+01 1.13443655275141e-01 
1.45378845439887e-02 3.59710258060367e+01 1.15110876365998e-01 
1.62482239021050e-02 3.44078047879112e+01 1.16161902693805e-01 
1.79585632602213e-02 3.29091558894369e+01 1.16700550991786e-01 
1.96689026183376e-02 3.14733071602382e+01 1.16813733200121e-01 
2.13792419764539e-02 3.01021518885646e+01 1.16644781758126e-01 
2.30895813345702e-02 2.87950251994687e+01 1.16271521459016e-01 
2.47999206926866e-02 2.75529087442616e+01 1.15684122786705e-01 
2.65102600508029e-02 2.63715392943640e+01 1.14720246341998e-01 
2.82205994089192e-02 2.52434783329056e+01 1.13495884517975e-01 
2.99309387670355e-02 2.41685848787194e+01 1.12193068933019e-01 
3.16412781251518e-02 2.31457256958084e+01 1.10815151779295e-01 
3.33516174832681e-02 2.21734336192195e+01 1.09395641520529e-01 
3.50619568413844e-02 2.12508672972441e+01 1.07918317424669e-01 
3.67722961995008e-02 2.03750457726895e+01 1.06350356945287e-01 
3.84826355576171e-02 1.95432322811839e+01 1.04746282011959e-01 
4.01929749157334e-02 1.87544279549334e+01 1.03098138803805e-01 
4.19033142738497e-02 1.80051462754958e+01 1.01377574208817e-01 
4.36136536319660e-02 1.72928516203636e+01 9.96412933522153e-02 
4.53239929900823e-02 1.66165789016312e+01 9.79253999407331e-02 
4.70343323481986e-02 1.59753468919658e+01 9.62334413153580e-02 
4.87446717063150e-02 1.53681739342911e+01 9.45672023892661e-02 
5.04550110644313e-02 1.47940910790040e+01 9.28793148733843e-02 
5.21653504225476e-02 1.42490458169102e+01 9.11601685092399e-02 
5.38756897806639e-02 1.37312506714721e+01 8.94554069852013e-02 
5.55860291387802e-02 1.32399076972113e+01 8.77774813775852e-02 
5.72963684968965e-02 1.27742329869996e+01 8.61260757990577e-02 
5.90067078550128e-02 1.23334623629148e+01 8.44997991810248e-02 
6.07170472131291e-02 1.19168561169128e+01 8.28831362716139e-02 
6.24273865712455e-02 1.15209011043507e+01 8.12807052486083e-02 
6.41377259293618e-02 1.11447426972518e+01 7.97019271739867e-02 
6.58480652874781e-02 1.07877951781660e+01 7.81459572672948e-02 
6.75584046455944e-02 1.04494901327201e+01 7.66109226282209e-02 
6.92687440037107e-02 1.01292785549831e+01 7.50952321026388e-02 
7.09790833618270e-02 9.82647396515851e+00 7.36144394610014e-02 
7.26894227199433e-02 9.53854456976226e+00 7.21729099560703e-02 
7.43997620780597e-02 9.26506533021836e+00 7.07482857215272e-02 
7.61101014361760e-02 9.00562459300780e+00 6.93384809323774e-02 
7.78204407942923e-02 8.75982499625943e+00 6.79408957744829e-02 
7.95307801524086e-02 8.52728412912420e+00 6.65611020922107e-02 
8.12411195105249e-02 8.30725110728628e+00 6.52317467445642e-02 
8.29514588686412e-02 8.09807041534010e+00 6.39482955189598e-02 
8.46617982267576e-02 7.89945147478542e+00 6.26730951674619e-02 
8.63721375848739e-02 7.71111333446454e+00 6.14037283564544e-02 
8.80824769429902e-02 7.53278487077492e+00 6.01373942963946e-02 
8.97928163011065e-02 7.36420483844665e+00 5.88944451812302e-02 
9.15031556592228e-02 7.20456740854902e+00 5.77175278260226e-02 
9.32134950173391e-02 7.05274214689637e+00 5.65864210550056e-02 
9.49238343754554e-02 6.90853781441033e+00 5.54560783658807e-02 
9.66341737335717e-02 6.77176881287147e+00 5.43242860227159e-02 
9.83445130916881e-02 6.64225513224233e+00 5.31885637294507e-02 
1.00054852449804e-01 6.51982220610712e+00 5.20815698164050e-02 
1.01765191807921e-01 6.40376153785616e+00 5.10385712418710e-02 
1.03475531166037e-01 6.29345489813249e+00 5.00253889905429e-02 
1.05185870524153e-01 6.18877350419675e+00 4.90063561498017e-02 
1.06896209882270e-01 6.08959156428098e+00 4.79794261653919e-02 
1.08606549240386e-01 5.99578611163208e+00 4.69423634617215e-02 
1.10316888598502e-01 5.90723677798446e+00 4.59472936295065e-02 
1.12027227956619e-01 5.82324208085083e+00 4.50248912140986e-02 
1.13737567314735e-01 5.74344052947670e+00 4.41205324599988e-02 
1.15447906672851e-01 5.66774644581550e+00 4.32058661401418e-02 
1.17158246030968e-01 5.59607525377125e+00 4.22792098555853e-02 
1.18868585389084e-01 5.52834331070574e+00 4.13387586115660e-02 
1.20578924747200e-01 5.46446770197085e+00 4.04625996766285e-02 
1.22289264105316e-01 5.40373333853473e+00 3.96737265607217e-02 
1.23999603463433e-01 5.34596077027215e+00 3.88904592564541e-02 
1.25709942821549e-01 5.29109547718642e+00 3.80953717793272e-02 
1.27420282179665e-01 5.23908297362745e+00 3.72872937949405e-02 
1.29130621537782e-01 5.18986869865424e+00 3.64649839711318e-02 
1.30840960895898e-01 5.14339788712749e+00 3.56772961613216e-02 
1.32551300254014e-01 5.09930995880249e+00 3.49285369001046e-02 
1.34261639612131e-01 5.05755882414339e+00 3.41661875758643e-02 
1.35971978970247e-01 5.01810057680037e+00 3.33887542533970e-02 
1.37682318328363e-01 4.98089076310524e+00 3.25951389321425e-02 
1.39392657686480e-01 4.94588425894534e+00 3.17975844683189e-02 
1.41102997044596e-01 4.91296938940489e+00 3.10775127922812e-02 
1.42813336402712e-01 4.88172097027445e+00 3.04280895634479e-02 
1.44523675760829e-01 4.85211060194866e+00 2.97650377616940e-02 
1.46234015118945e-01 4.82410924127255e+00 2.90876688012839e-02 
1.47944354477061e-01 4.79768713841961e+00 2.83952690738187e-02 
1.49654693835177e-01 4.77281376746403e+00 2.77242385159736e-02 
1.51365033193294e-01 4.74931441053083e+00 2.71668436999355e-02 
1.53075372551410e-01 4.72683119219595e+00 2.66915064489612e-02 
1.54785711909526e-01 4.70535092052581e+00 2.62059228519777e-02 
1.56496051267643e-01 4.68485993988984e+00 2.57098001330036e-02 
1.58206390625759e-01 4.66534411523813e+00 2.52028325085897e-02 
1.59916729983875e-01 4.64678881418459e+00 2.46847021155302e-02 
1.61627069341992e-01 4.62917888696601e+00 2.41550800131730e-02 
1.63337408700108e-01 4.61249864435414e+00 2.36136272669949e-02 
1.65047748058224e-01 4.59673183360552e+00 2.30599961203287e-02 
1.66758087416341e-01 4.58186161254312e+00 2.24938312614657e-02 
1.68468426774457e-01 4.56787052187325e+00 2.19147711936634e-02 
1.70178766132573e-01 4.55474045585278e+00 2.13861814622167e-02 
1.71889105490690e-01 4.54229110630657e+00 2.09557148817661e-02 
1.73599444848806e-01 4.53040694387248e+00 2.05602096461265e-02 
1.75309784206922e-01 4.51908028048863e+00 2.01557670555659e-02 
1.77020123565039e-01 4.50830308130465e+00 1.97422330599785e-02 
1.78730462923155e-01 4.49806695706376e+00 1.93194496861818e-02 
1.80440802281271e-01 4.48836315588645e+00 1.89359837345957e-02 
1.82151141639387e-01 4.47908048163347e+00 1.86109886433096e-02 
1.83861480997504e-01 4.47018143724415e+00 1.82951493005492e-02 
1.85571820355620e-01 4.46166160414499e+00 1.79721701050065e-02 
1.87282159713736e-01 4.45351633628865e+00 1.76419690206713e-02 
1.88992499071853e-01 4.44574075726536e+00 1.73044616103469e-02 
1.90702838429969e-01 4.43832975715071e+00 1.70245711910705e-02 
1.92413177788085e-01 4.43116293006834e+00 1.68125798921126e-02 
1.94123517146202e-01 4.42422741561976e+00 1.66021702247298e-02 
1.95833856504318e-01 4.41752167742686e+00 1.63867592845885e-02 
1.97544195862434e-01 4.41104406168107e+00 1.61663191243097e-02 
1.99254535220551e-01 4.40479279681061e+00 1.59441348979865e-02 
2.00964874578667e-01 4.39876073303021e+00 1.57693023535265e-02 
2.02675213936783e-01 4.39287006145258e+00 1.56406668530600e-02 
2.04385553294900e-01 4.38712057062620e+00 1.55085293452425e-02 
2.06095892653016e-01 4.38151198856629e+00 1.53728848111639e-02 
2.07806232011132e-01 4.37604398295916e+00 1.52337273655796e-02 
2.09516571369248e-01 4.37071616133398e+00 1.51020889311182e-02 
2.11226910727365e-01 4.36551231127607e+00 1.50185958509778e-02 
2.12937250085481e-01 4.36037572222765e+00 1.49733747955396e-02 
2.14647589443597e-01 4.35530681036831e+00 1.49260261634575e-02 
2.16357928801714e-01 4.35030596788435e+00 1.48765552765703e-02 
2.18068268159830e-01 4.34537356315355e+00 1.48249671298578e-02 
2.19778607517946e-01 4.34050994092398e+00 1.47895560750565e-02 
2.21488946876063e-01 4.33569102987038e+00 1.48021486201204e-02 
2.23199286234179e-01 4.33087575152985e+00 1.48449822748483e-02 
2.24909625592295e-01 4.32606451334875e+00 1.48868795943538e-02 
2.26619964950412e-01 4.32125771798490e+00 1.49278449686896e-02 
2.28330304308528e-01 4.31645576333169e+00 1.49678827780139e-02 
2.30040643666644e-01 4.31165904254236e+00 1.50295410198243e-02 
2.31750983024761e-01 4.30683865782747e+00 1.51336762761875e-02 
2.33461322382877e-01 4.30196794663534e+00 1.52580442711210e-02 
2.35171661740993e-01 4.29704676553734e+00 1.53823179068012e-02 
2.36882001099110e-01 4.29207497377522e+00 1.55064894535314e-02 
2.38592340457226e-01 4.28705243329483e+00 1.56305511436518e-02 
2.40302679815342e-01 4.28197900877978e+00 1.57827535308937e-02 
2.42013019173458e-01 4.27681742186506e+00 1.59764884097329e-02 
2.43723358531575e-01 4.27154893172747e+00 1.61839164729172e-02 
2.45433697889691e-01 4.26617237106602e+00 1.63917782579403e-02 
2.47144037247807e-01 4.26068658042514e+00 1.66000399447619e-02 
2.48854376605924e-01 4.25509040868537e+00 1.68086672353421e-02 
2.50564715964040e-01 4.24938271355918e+00 1.70456910744991e-02 
2.52275055322156e-01 4.24352372953845e+00 1.73163257371589e-02 
2.53985394680273e-01 4.23750332586493e+00 1.75931062858630e-02 
2.55695734038389e-01 4.23131919456228e+00 1.78703731610333e-02 
2.57406073396505e-01 4.22496904628494e+00 1.81480558830886e-02 
2.59116412754622e-01 4.21845061181507e+00 1.84260827937757e-02 
2.60826752112738e-01 4.21176164357805e+00 1.87368059447398e-02 
2.62537091470854e-01 4.20485204068536e+00 1.90797884203445e-02 
2.64247430828971e-01 4.19771736254364e+00 1.94234946401052e-02 
2.65957770187087e-01 4.19035400755354e+00 1.97672715012654e-02 
2.67668109545203e-01 4.18275841893703e+00 2.01109949188635e-02 
2.69378448903319e-01 4.17492708808857e+00 2.04586525919582e-02 
2.71088788261436e-01 4.16685001353862e+00 2.08360424148298e-02 
2.72799127619552e-01 4.15848151511426e+00 2.12380912806765e-02 
2.74509466977668e-01 4.14981673557867e+00 2.16393889540567e-02 
2.76219806335785e-01 4.14085090754354e+00 2.20397456737108e-02 
2.77930145693901e-01 4.13157935948450e+00 2.24389688059509e-02 
2.79640485052017e-01 4.12199752180225e+00 2.28467663230817e-02 
2.81350824410134e-01 4.11208351461265e+00 2.32868111272460e-02 
2.83061163768250e-01 4.10178902030803e+00 2.37481877817512e-02 
2.84771503126366e-01 4.09110794024004e+00 2.42070787447246e-02 
2.86481842484483e-01 4.08003435906432e+00 2.46631976464657e-02 
2.88192181842599e-01 4.06856255505352e+00 2.51162549576542e-02 
2.89902521200715e-01 4.05668701040821e+00 2.55659582723273e-02 
2.91612860558832e-01 4.04440242154647e+00 2.60120126043465e-02 
2.93323199916948e-01 4.03170370935212e+00 2.64541206971108e-02 
2.95033539275064e-01 4.01858602936128e+00 2.68919833462100e-02 
2.96743878633181e-01 4.00504478186599e+00 2.73252997346424e-02 
2.98454217991297e-01 3.99107562191366e+00 2.77537677802033e-02 
3.00164557349413e-01 3.97667446918016e+00 2.82114510208662e-02 
3.01874896707529e-01 3.96176210533287e+00 2.87194117478526e-02 
3.03585236065646e-01 3.94628136218419e+00 2.92421289732259e-02 
3.05295575423762e-01 3.93022608349581e+00 2.97563897364595e-02 
3.07005914781878e-01 3.91359063228106e+00 3.02617063479997e-02 
3.08716254139995e-01 3.89636990955086e+00 3.07575932768272e-02 
3.10426593498111e-01 3.87855937245082e+00 3.12435680693512e-02 
3.12136932856227e-01 3.86015505172447e+00 3.17191522841057e-02 
3.13847272214344e-01 3.84115356843779e+00 3.21838724396674e-02 
3.15557611572460e-01 3.82155214990083e+00 3.26372609731146e-02 
3.17267950930576e-01 3.80134864472319e+00 3.30788572061973e-02 
3.18978290288693e-01 3.78054153694099e+00 3.35082083163194e-02 
3.20688629646809e-01 3.75912995915468e+00 3.39248703093078e-02 
3.22398969004925e-01 3.73711370461868e+00 3.43284089908663e-02 
3.24109308363042e-01 3.71449323822578e+00 3.47184009335642e-02 
3.25819647721158e-01 3.69126970633173e+00 3.50944344361092e-02 
3.27529987079274e-01 3.66744494536789e+00 3.54561104716362e-02 
3.29240326437390e-01 3.64302148919302e+00 3.58030436217196e-02 
3.30950665795507e-01 3.61800257513805e+00 3.61348629927867e-02 
3.32661005153623e-01 3.59239214870161e+00 3.64512131116135e-02 
3.34371344511739e-01 3.56619486685746e+00 3.67517547966132e-02 
3.36081683869856e-01 3.53941609993910e+00 3.70361660016453e-02 
3.37792023227972e-01 3.51206193207110e+00 3.73041426291355e-02 
3.39502362586088e-01 3.48413916012097e+00 3.75553993093664e-02 
3.41212701944205e-01 3.45565529115015e+00 3.77896701428604e-02 
3.42923041302321e-01 3.42661853834742e+00 3.80067094029129e-02 
3.44633380660437e-01 3.39703781543306e+00 3.82062921954177e-02 
3.46343720018554e-01 3.36692272952719e+00 3.83882150732635e-02 
3.48054059376670e-01 3.33628357248085e+00 3.85522966027539e-02 
3.49764398734786e-01 3.30513131067384e+00 3.87095664741872e-02 
3.51474738092903e-01 3.27343360949412e+00 3.88782453881373e-02 
3.53185077451019e-01 3.24112594236746e+00 3.90448184947488e-02 
3.54895416809135e-01 3.20822287683278e+00 3.91889623324356e-02 
3.56605756167251e-01 3.17473989568352e+00 3.93105594701130e-02 
3.58316095525368e-01 3.14069337285599e+00 3.94095279927920e-02 
3.60026434883484e-01 3.10610054688474e+00 3.94858218193776e-02 
3.61736774241600e-01 3.07097949199494e+00 3.95394309107782e-02 
3.63447113599717e-01 3.03534908691253e+00 3.95703813670683e-02 
3.65157452957833e-01 2.99922898148279e+00 3.95787354129966e-02 
3.66867792315949e-01 2.96263956119797e+00 3.95645912716581e-02 
3.68578131674066e-01 2.92560190974341e+00 3.95280829267289e-02 
3.70288471032182e-01 2.88813776968090e+00 3.94693797741943e-02 
3.71998810390298e-01 2.85026950139550e+00 3.93886861650192e-02 
3.73709149748415e-01 2.81202004044009e+00 3.92862408407805e-02 
3.75419489106531e-01 2.77341285341829e+00 3.91623162647691e-02 
3.77129828464647e-01 2.73447189255284e+00 3.90172178515779e-02 
3.78840167822764e-01 2.69522154909154e+00 3.88512830986787e-02 
3.80550507180880e-01 2.65568660570749e+00 3.86648806239404e-02 
3.82260846538996e-01 2.61589218805429e+00 3.84584091134697e-02 
3.83971185897113e-01 2.57586371563935e+00 3.82322961845636e-02 
3.85681525255229e-01 2.53562685218088e+00 3.79869971689263e-02 
3.87391864613345e-01 2.49520745561502e+00 3.77229938216352e-02 
3.89102203971461e-01 2.45463152792018e+00 3.74407929616509e-02 
3.90812543329578e-01 2.41392516492484e+00 3.71409250499205e-02 
3.92522882687694e-01 2.37311450626411e+00 3.68239427113501e-02 
3.94233222045810e-01 2.33222568564769e+00 3.64904192070940e-02 
3.95943561403927e-01 2.29128478159949e+00 3.61409468637737e-02 
3.97653900762043e-01 2.25031776882493e+00 3.57761354663306e-02 
3.99364240120159e-01 2.20935047035779e+00 3.53972498591292e-02 
4.01074579478276e-01 2.16840345414436e+00 3.50089808119537e-02 
4.02784918836392e-01 2.12746865981105e+00 3.46106373787727e-02 
4.04495258194508e-01 2.08657340071383e+00 3.41980419108120e-02 
4.06205597552625e-01 2.04574467646583e+00 3.37719249563702e-02 
4.07915936910741e-01 2.00500912304500e+00 3.33330267893717e-02 
4.09626276268857e-01 1.96439296465822e+00 3.28820954286189e-02 
4.11336615626974e-01 1.92392196749721e+00 3.24198846739632e-02 
4.13046954985090e-01 1.88362139551079e+00 3.19471521670078e-02 
4.14757294343206e-01 1.84351596830694e+00 3.14646574836238e-02 
4.16467633701323e-01 1.80362982128595e+00 3.09731602652111e-02 
4.18177973059439e-01 1.76398646809496e+00 3.04734183952460e-02 
4.19888312417555e-01 1.72460876548127e+00 2.99661862272415e-02 
4.21598651775671e-01 1.68551888061038e+00 2.94522128698110e-02 
4.23308991133788e-01 1.64673826090233e+00 2.89322405340662e-02 
4.25019330491904e-01 1.60828760642787e+00 2.84070029481129e-02 
4.26729669850020e-01 1.57018684489422e+00 2.78772238429211e-02 
4.28440009208137e-01 1.53245510923832e+00 2.73436155133543e-02 
4.30150348566253e-01 1.49511071783435e+00 2.68068774576495e-02 
4.31860687924369e-01 1.45817115731082e+00 2.62676950981442e-02 
4.33571027282486e-01 1.42165306796221e+00 2.57267385855551e-02 
4.35281366640602e-01 1.38557223172963e+00 2.51846616886216e-02 
4.36991705998718e-01 1.34994356271526e+00 2.46421007704578e-02 
4.38702045356835e-01 1.31478110018619e+00 2.40996738524894e-02 
4.40412384714951e-01 1.28009800401431e+00 2.35579797663922e-02 
4.42122724073067e-01 1.24590655249104e+00 2.30175973940325e-02 
4.43833063431184e-01 1.21221814244809e+00 2.24790849949831e-02 
4.45543402789300e-01 1.17904329160838e+00 2.19429796207984e-02 
4.47253742147416e-01 1.14639164308536e+00 2.14097966148601e-02 
4.48964081505532e-01 1.11427197194296e+00 2.08800291962619e-02 
4.50674420863649e-01 1.08269219372386e+00 2.03541481258744e-02 
4.52384760221765e-01 1.05165937484906e+00 1.98326014524369e-02 
4.54095099579881e-01 1.02117974478843e+00 1.93158143362536e-02 
4.55805438937998e-01 9.91258709898755e-01 1.88041889478254e-02 
4.57515778296114e-01 9.61900868823308e-01 1.82981044385325e-02 
4.59226117654230e-01 9.33110029345459e-01 1.77979169802948e-02 
4.60936457012347e-01 9.04889226587357e-01 1.73039598709692e-02 
4.62646796370463e-01 8.77240742444294e-01 1.68165437021094e-02 
4.64357135728579e-01 8.50166126145173e-01 1.63359565855978e-02 
4.66067475086696e-01 8.23666215829975e-01 1.58624644355729e-02 
4.67777814444812e-01 7.97741161036021e-01 1.53963113020111e-02 
4.69488153802928e-01 7.72390445986188e-01 1.49377197522820e-02 
4.71198493161045e-01 7.47612913574048e-01 1.44868912969732e-02 
4.72908832519161e-01 7.23406789943078e-01 1.40440068562852e-02 
4.74619171877277e-01 6.99769709559624e-01 1.36092272633143e-02 
4.76329511235393e-01 6.76698740682183e-01 1.31826938005811e-02 
4.78039850593510e-01 6.54190411132737e-01 1.27645287662149e-02 
4.79750189951626e-01 6.32240734279260e-01 1.23548360662775e-02 
4.81460529309742e-01 6.10845235142207e-01 1.19537018297878e-02 
4.83170868667859e-01 5.89998976541605e-01 1.15611950431115e-02 
4.84881208025975e-01 5.69696585205388e-01 1.11773682004805e-02 
4.86591547384091e-01 5.49932277763738e-01 1.08022579675303e-02 
4.88301886742208e-01 5.30699886558449e-01 1.04358858548617e-02 
4.90012226100324e-01 5.11992885200638e-01 1.00782588987715e-02 
4.91722565458440e-01 4.93804413814486e-01 9.72937034643285e-03 
4.93432904816557e-01 4.76127303909085e-01 9.38920034294547e-03 
4.95143244174673e-01 4.58954102824857e-01 9.05771661782964e-03 
4.96853583532789e-01 4.42277097705355e-01 8.73487516867939e-03 
4.98563922890906e-01 4.26088338949606e-01 8.42062093984457e-03 
5.00274262249022e-01 4.10379663104382e-01 8.11507987840480e-03 
5.01984601607138e-01 3.95146156282446e-01 7.81826793803086e-03 
5.03694940965254e-01 3.80380538376577e-01 7.52997670104393e-03 
5.05405280323371e-01 3.66073504866631e-01 7.25003887046623e-03 
5.07115619681487e-01 3.52215670202639e-01 6.97833842437053e-03 
5.08825959039603e-01 3.38797585248285e-01 6.71475346431332e-03 
5.10536298397720e-01 3.25809754023219e-01 6.45915674876564e-03 
5.12246637755836e-01 3.13242649737346e-01 6.21141621014254e-03 
5.13956977113952e-01 3.01086730112839e-01 5.97139545483967e-03 
5.15667316472069e-01 2.89332451992131e-01 5.73895424578453e-03 
5.17377655830185e-01 2.77970285232455e-01 5.51394896710518e-03 
5.19087995188301e-01 2.66990725889724e-01 5.29623307060797e-03 
5.20798334546418e-01 2.56384308696556e-01 5.08565750384120e-03 
5.22508673904534e-01 2.46141618841190e-01 4.88207111960245e-03 
5.24219013262650e-01 2.36253303055774e-01 4.68532106682173e-03 
5.25929352620767e-01 2.26710080024132e-01 4.49525316282293e-03 
5.27639691978883e-01 2.17502750120608e-01 4.31171224703174e-03 
5.29350031336999e-01 2.08622204492918e-01 4.13454251625871e-03 
5.31060370695116e-01 2.00059433503154e-01 3.96358784174150e-03 
