Energy(eV)           EEDF(eV^-(3/2))      Anisotropy(eV^-(3/2))
1.61254997185685e-03 1.87429311664427e+00 4.71331968321375e-04 
4.83764991557056e-03 1.87221504414104e+00 7.52042303973810e-04 
8.06274985928426e-03 1.86912392913017e+00 1.11894020870230e-03 
1.12878498029980e-02 1.86547865504845e+00 1.40758280563556e-03 
1.45129497467117e-02 1.86154333220654e+00 1.64094145156158e-03 
1.77380496904254e-02 1.85747339327703e+00 1.83105980690298e-03 
2.09631496341391e-02 1.85338493804480e+00 1.98259553973121e-03 
2.41882495778528e-02 1.84937388337607e+00 2.09907158662038e-03 
2.74133495215665e-02 1.84551013554615e+00 2.20102448901419e-03 
3.06384494652802e-02 1.84172926023461e+00 2.29101238145436e-03 
3.38635494089939e-02 1.83809067466347e+00 2.35322559578042e-03 
3.70886493527076e-02 1.83464021579526e+00 2.39770032050633e-03 
4.03137492964213e-02 1.83136597291158e+00 2.43357784872418e-03 
4.35388492401350e-02 1.82826194635000e+00 2.45936447718154e-03 
4.67639491838487e-02 1.82532976563971e+00 2.46813821289671e-03 
4.99890491275624e-02 1.82259828057658e+00 2.46329098265874e-03 
5.32141490712761e-02 1.82004956131570e+00 2.45695687418532e-03 
5.64392490149898e-02 1.81766093034172e+00 2.44215195501556e-03 
5.96643489587035e-02 1.81544818710441e+00 2.41589029843026e-03 
6.28894489024172e-02 1.81339977519519e+00 2.39016419339323e-03 
6.61145488461309e-02 1.81148957986823e+00 2.36041106982762e-03 
6.93396487898446e-02 1.80972623899782e+00 2.32034312417294e-03 
7.25647487335583e-02 1.80810392213851e+00 2.28104417746427e-03 
7.57898486772720e-02 1.80659874408764e+00 2.24017532278349e-03 
7.90149486209858e-02 1.80521523321306e+00 2.18991113618571e-03 
8.22400485646995e-02 1.80395048672389e+00 2.14113634867790e-03 
8.54651485084131e-02 1.80278231589946e+00 2.09313906266448e-03 
8.86902484521269e-02 1.80171287444878e+00 2.03652887404866e-03 
9.19153483958406e-02 1.80074097825190e+00 1.98302935126675e-03 
9.51404483395543e-02 1.79984487920477e+00 1.93332949617596e-03 
9.83655482832680e-02 1.79902549622943e+00 1.87567659739787e-03 
1.01590648226982e-01 1.79828309825194e+00 1.82007799841570e-03 
1.04815748170695e-01 1.79760135409499e+00 1.76819446089775e-03 
1.08040848114409e-01 1.79698031201732e+00 1.70973180410658e-03 
1.11265948058123e-01 1.79641967891319e+00 1.65330839689795e-03 
1.14491048001836e-01 1.79590720462841e+00 1.60137811233743e-03 
1.17716147945550e-01 1.79544127136986e+00 1.54506941706403e-03 
1.20941247889264e-01 1.79502138661113e+00 1.49120033860622e-03 
1.24166347832978e-01 1.79463802841481e+00 1.44315345024925e-03 
1.27391447776691e-01 1.79428859082279e+00 1.39294397216716e-03 
1.30616547720405e-01 1.79397264687553e+00 1.34163753945794e-03 
1.33841647664119e-01 1.79368654216856e+00 1.29125354989786e-03 
1.37066747607832e-01 1.79342841558226e+00 1.23854884466202e-03 
1.40291847551546e-01 1.79319765599760e+00 1.18675576386666e-03 
1.43516947495260e-01 1.79298984478539e+00 1.14008197263614e-03 
1.46742047438974e-01 1.79280198050972e+00 1.09391352157020e-03 
1.49967147382687e-01 1.79263360236754e+00 1.04967057856769e-03 
1.53192247326401e-01 1.79248098681452e+00 1.01354742760599e-03 
1.56417347270115e-01 1.79234058026813e+00 9.80907152847802e-04 
1.59642447213828e-01 1.79221220187991e+00 9.46053248277471e-04 
1.62867547157542e-01 1.79209562066565e+00 9.08986065795719e-04 
1.66092647101256e-01 1.79199055548822e+00 8.69706215769494e-04 
1.69317747044969e-01 1.79189667503687e+00 8.30543193663390e-04 
1.72542846988683e-01 1.79181257458094e+00 7.97753294525418e-04 
1.75767946932397e-01 1.79173550243824e+00 7.69663165405270e-04 
1.78993046876111e-01 1.79166531256890e+00 7.40910929929225e-04 
1.82218146819824e-01 1.79160149793452e+00 7.15637712371727e-04 
1.85443246763538e-01 1.79154248838235e+00 6.93386580470563e-04 
1.88668346707252e-01 1.79148820205916e+00 6.70387182931872e-04 
1.91893446650965e-01 1.79143839605170e+00 6.51649643060848e-04 
1.95118546594679e-01 1.79139148176540e+00 6.37230918930699e-04 
1.98343646538393e-01 1.79134743812247e+00 6.21975802892633e-04 
2.01568746482106e-01 1.79130623690840e+00 6.09792086445650e-04 
2.04793846425820e-01 1.79126680144425e+00 6.01082175486388e-04 
2.08018946369534e-01 1.79122912077377e+00 5.91849436332593e-04 
2.11244046313248e-01 1.79119319516462e+00 5.85485736024578e-04 
2.14469146256961e-01 1.79115818358749e+00 5.82679710255203e-04 
2.17694246200675e-01 1.79112399170816e+00 5.79986821845250e-04 
2.20919346144389e-01 1.79109063325760e+00 5.79937969999750e-04 
2.24144446088102e-01 1.79105743772065e+00 5.83498123392066e-04 
2.27369546031816e-01 1.79102422844510e+00 5.87752851563380e-04 
2.30594645975530e-01 1.79099101546167e+00 5.94177068220488e-04 
2.33819745919244e-01 1.79095729709731e+00 6.03891859555123e-04 
2.37044845862957e-01 1.79092283163425e+00 6.14700196379956e-04 
2.40269945806671e-01 1.79088761030939e+00 6.27490348637642e-04 
2.43495045750385e-01 1.79085119203842e+00 6.43651375554169e-04 
2.46720145694098e-01 1.79081323321967e+00 6.61355343820208e-04 
2.49945245637812e-01 1.79077369109995e+00 6.80603096518047e-04 
2.53170345581526e-01 1.79073221614210e+00 7.02790434194820e-04 
2.56395445525239e-01 1.79068840809764e+00 7.26665386529201e-04 
2.59620545468953e-01 1.79064218321027e+00 7.51942870477548e-04 
2.62845645412667e-01 1.79059319996876e+00 7.80279765902477e-04 
2.66070745356381e-01 1.79054092437889e+00 8.10666229449653e-04 
2.69295845300094e-01 1.79048521936098e+00 8.42267659403863e-04 
2.72520945243808e-01 1.79042575350592e+00 8.76902435337160e-04 
2.75746045187522e-01 1.79036186082812e+00 9.13836694259464e-04 
2.78971145131235e-01 1.79029334146171e+00 9.51925289893341e-04 
2.82196245074949e-01 1.79021983389227e+00 9.93615205152445e-04 
2.85421345018663e-01 1.79014037259445e+00 1.03829302318412e-03 
2.88646444962377e-01 1.79005467057696e+00 1.08371445978145e-03 
2.91871544906090e-01 1.78996243522047e+00 1.12987844182005e-03 
2.95096644849804e-01 1.78986336829304e+00 1.17678383924667e-03 
2.98321744793518e-01 1.78975716596664e+00 1.22442946239518e-03 
3.01546844737231e-01 1.78964351883448e+00 1.27832031648538e-03 
3.04771944680945e-01 1.78952011366886e+00 1.33828549602570e-03 
3.07997044624659e-01 1.78938641809135e+00 1.39931654786537e-03 
3.11222144568372e-01 1.78924193013583e+00 1.46130636002418e-03 
3.14447244512086e-01 1.78908613845987e+00 1.52425243835964e-03 
3.17672344455800e-01 1.78891852239129e+00 1.58815215467548e-03 
3.20897444399514e-01 1.78873855197765e+00 1.65300274086134e-03 
3.24122544343227e-01 1.78854568803863e+00 1.71880128315870e-03 
3.27347644286941e-01 1.78833938222152e+00 1.78554471655144e-03 
3.30572744230655e-01 1.78811907705982e+00 1.85322981920317e-03 
3.33797844174368e-01 1.78788420603514e+00 1.92185320693700e-03 
3.37022944118082e-01 1.78763419364245e+00 1.99141132775865e-03 
3.40248044061796e-01 1.78736845545880e+00 2.06190045642104e-03 
3.43473144005509e-01 1.78708639821567e+00 2.13331668897126e-03 
3.46698243949223e-01 1.78678741987494e+00 2.20565593730091e-03 
3.49923343892937e-01 1.78647090970871e+00 2.28130059267447e-03 
3.53148443836651e-01 1.78613490344247e+00 2.36280233873356e-03 
3.56373543780364e-01 1.78577715159217e+00 2.44783004648544e-03 
3.59598643724078e-01 1.78539682228471e+00 2.53392621874857e-03 
3.62823743667792e-01 1.78499307197363e+00 2.62108406015442e-03 
3.66048843611505e-01 1.78456504559397e+00 2.70929646050998e-03 
3.69273943555219e-01 1.78411187672472e+00 2.79855598612582e-03 
3.72499043498933e-01 1.78363268775909e+00 2.88885487115672e-03 
3.75724143442646e-01 1.78312659008268e+00 2.98018500899647e-03 
3.78949243386360e-01 1.78259268425984e+00 3.07253794369075e-03 
3.82174343330074e-01 1.78203006022843e+00 3.16590486138153e-03 
3.85399443273788e-01 1.78143779750313e+00 3.26027658179634e-03 
3.88624543217501e-01 1.78081496538743e+00 3.35564354977059e-03 
3.91849643161215e-01 1.78016062319476e+00 3.45199582682275e-03 
3.95074743104929e-01 1.77947382047855e+00 3.54932308276559e-03 
3.98299843048642e-01 1.77875359727176e+00 3.64761458739124e-03 
4.01524942992356e-01 1.77799898433591e+00 3.74921359811508e-03 
4.04750042936070e-01 1.77720708004047e+00 3.85409602299555e-03 
4.07975142879784e-01 1.77637673948916e+00 3.96003157813934e-03 
4.11200242823497e-01 1.77550686039775e+00 4.06694419771896e-03 
4.14425342767211e-01 1.77459633113946e+00 4.17481958738415e-03 
4.17650442710925e-01 1.77364403109689e+00 4.28364293660484e-03 
4.20875542654638e-01 1.77264883102682e+00 4.39339890957839e-03 
4.24100642598352e-01 1.77160959343808e+00 4.50407163630704e-03 
4.27325742542066e-01 1.77052517298270e+00 4.61564470384260e-03 
4.30550842485779e-01 1.76939441686049e+00 4.72810114772335e-03 
4.33775942429493e-01 1.76821616523731e+00 4.84142344362254e-03 
4.37001042373207e-01 1.76698925167699e+00 4.95559349921128e-03 
4.40226142316921e-01 1.76571250358730e+00 5.07059264624817e-03 
4.43451242260634e-01 1.76438474267996e+00 5.18640163291306e-03 
4.46676342204348e-01 1.76300478544480e+00 5.30300061641223e-03 
4.49901442148062e-01 1.76157144363832e+00 5.42036915585903e-03 
4.53126542091775e-01 1.76008352478663e+00 5.53848620544447e-03 
4.56351642035489e-01 1.75853983270292e+00 5.65733010792614e-03 
4.59576741979203e-01 1.75693916801954e+00 5.77687858843084e-03 
4.62801841922917e-01 1.75528032873473e+00 5.89710874860969e-03 
4.66026941866630e-01 1.75356211077406e+00 6.01799706114902e-03 
4.69252041810344e-01 1.75178330856668e+00 6.13951936465936e-03 
4.72477141754058e-01 1.74994271563626e+00 6.26165085896326e-03 
4.75702241697771e-01 1.74803912520678e+00 6.38436610077955e-03 
4.78927341641485e-01 1.74607133082301e+00 6.50763899985799e-03 
4.82152441585199e-01 1.74403812698579e+00 6.63144281554375e-03 
4.85377541528912e-01 1.74193830980195e+00 6.75575015381038e-03 
4.88602641472626e-01 1.73977067764885e+00 6.88053296478565e-03 
4.91827741416340e-01 1.73753403185340e+00 7.00576254075760e-03 
4.95052841360054e-01 1.73522717738561e+00 7.13140951471474e-03 
4.98277941303767e-01 1.73284892356625e+00 7.25744385942225e-03 
5.01503041247481e-01 1.73039808478878e+00 7.38112551306868e-03 
5.04728141191195e-01 1.72787714727305e+00 7.50239404272669e-03 
5.07953241134908e-01 1.72528518260438e+00 7.62383974321627e-03 
5.11178341078622e-01 1.72262114223044e+00 7.74552539341573e-03 
5.14403441022336e-01 1.71988398506612e+00 7.86742078037551e-03 
5.17628540966049e-01 1.71707267816952e+00 7.98949512214085e-03 
5.20853640909763e-01 1.71418619742824e+00 8.11171707063862e-03 
5.24078740853477e-01 1.71122352825578e+00 8.23405471511896e-03 
5.27303840797191e-01 1.70818366629770e+00 8.35647558615106e-03 
5.30528940740904e-01 1.70506561814735e+00 8.47894666020996e-03 
5.33754040684618e-01 1.70186840207074e+00 8.60143436485541e-03 
5.36979140628332e-01 1.69859104874028e+00 8.72390458449992e-03 
5.40204240572045e-01 1.69523260197701e+00 8.84632266680249e-03 
5.43429340515759e-01 1.69179211950088e+00 8.96865342969131e-03 
5.46654440459473e-01 1.68826867368878e+00 9.09086116901132e-03 
5.49879540403187e-01 1.68466135233982e+00 9.21290966682566e-03 
5.53104640346900e-01 1.68096925944739e+00 9.33476220037836e-03 
5.56329740290614e-01 1.67719151597762e+00 9.45638155172058e-03 
5.59554840234328e-01 1.67332726065366e+00 9.57773001801016e-03 
5.62779940178041e-01 1.66937565074528e+00 9.69876942249630e-03 
5.66005040121755e-01 1.66533586286334e+00 9.81946112619873e-03 
5.69230140065469e-01 1.66120709375841e+00 9.93976604028626e-03 
5.72455240009182e-01 1.65698856112311e+00 1.00596446391555e-02 
5.75680339952896e-01 1.65267950439746e+00 1.01790569742236e-02 
5.78905439896610e-01 1.64827918557673e+00 1.02979626884438e-02 
5.82130539840324e-01 1.64378689002097e+00 1.04163210315307e-02 
5.85355639784037e-01 1.63920192726572e+00 1.05340908759131e-02 
5.88580739727751e-01 1.63452363183314e+00 1.06512307334151e-02 
5.91805839671465e-01 1.62975136404283e+00 1.07676987726649e-02 
5.95030939615178e-01 1.62488451082159e+00 1.08834528372329e-02 
5.98256039558892e-01 1.61992248651151e+00 1.09984504644964e-02 
6.01481139502606e-01 1.61486473367540e+00 1.11126489052322e-02 
6.04706239446320e-01 1.60971072389891e+00 1.12260051439385e-02 
6.07931339390033e-01 1.60445995858859e+00 1.13384759198771e-02 
6.11156439333747e-01 1.59911196976479e+00 1.14500177488327e-02 
6.14381539277461e-01 1.59366632084894e+00 1.15605869455874e-02 
6.17606639221174e-01 1.58812260744394e+00 1.16701396471007e-02 
6.20831739164888e-01 1.58248045810712e+00 1.17786318363913e-02 
6.24056839108602e-01 1.57673953511469e+00 1.18860193671081e-02 
6.27281939052315e-01 1.57089953521676e+00 1.19922579887810e-02 
6.30507038996029e-01 1.56496019038213e+00 1.20973033727453e-02 
6.33732138939743e-01 1.55892126853180e+00 1.22011111387244e-02 
6.36957238883457e-01 1.55278257426026e+00 1.23036368820492e-02 
6.40182338827170e-01 1.54654394954371e+00 1.24048362015153e-02 
6.43407438770884e-01 1.54020527443405e+00 1.25046647278563e-02 
6.46632538714598e-01 1.53376646773786e+00 1.26030781528100e-02 
6.49857638658311e-01 1.52722748767923e+00 1.27000322587557e-02 
6.53082738602025e-01 1.52058833254554e+00 1.27954829489190e-02 
6.56307838545739e-01 1.51384904131513e+00 1.28893862781197e-02 
6.59532938489452e-01 1.50700969426588e+00 1.29816984840219e-02 
6.62758038433166e-01 1.50007041356379e+00 1.30723760188791e-02 
6.65983138376880e-01 1.49303136383033e+00 1.31613755817522e-02 
6.69208238320594e-01 1.48589275268776e+00 1.32486541511579e-02 
6.72433338264307e-01 1.47865483128140e+00 1.33341690181390e-02 
6.75658438208021e-01 1.47131789477771e+00 1.34178778197153e-02 
6.78883538151735e-01 1.46388228283729e+00 1.34997385726842e-02 
6.82108638095448e-01 1.45634838006188e+00 1.35797097077465e-02 
6.85333738039162e-01 1.44871661641420e+00 1.36577501039224e-02 
6.88558837982876e-01 1.44098746760981e+00 1.37338191232250e-02 
6.91783937926590e-01 1.43316145548001e+00 1.38078766455478e-02 
6.95009037870303e-01 1.42523914830475e+00 1.38798831037439e-02 
6.98234137814017e-01 1.41722116111477e+00 1.39497995188507e-02 
7.01459237757731e-01 1.40910815596189e+00 1.40139107991628e-02 
7.04684337701444e-01 1.40090985106389e+00 1.40721137002711e-02 
7.07909437645158e-01 1.39262746319892e+00 1.41280882621552e-02 
7.11134537588872e-01 1.38426179856898e+00 1.41819885951653e-02 
7.14359637532585e-01 1.37581370343228e+00 1.42337851127317e-02 
7.17584737476299e-01 1.36728406412063e+00 1.42834489341539e-02 
7.20809837420013e-01 1.35867380702777e+00 1.43309519120027e-02 
7.24034937363726e-01 1.34998389856830e+00 1.43762666593270e-02 
7.27260037307440e-01 1.34121534510656e+00 1.44193665766446e-02 
7.30485137251154e-01 1.33236919285510e+00 1.44602258786764e-02 
7.33710237194868e-01 1.32344652774244e+00 1.44988196207856e-02 
7.36935337138581e-01 1.31444847524948e+00 1.45351237250963e-02 
7.40160437082295e-01 1.30537620021449e+00 1.45691150062534e-02 
7.43385537026009e-01 1.29623090660610e+00 1.46007711967841e-02 
7.46610636969722e-01 1.28701383726424e+00 1.46300709720299e-02 
7.49835736913436e-01 1.27772627360851e+00 1.46569939746205e-02 
7.53060836857150e-01 1.26836953531403e+00 1.46815208384435e-02 
7.56285936800864e-01 1.25894497995429e+00 1.47036332120774e-02 
7.59511036744577e-01 1.24945400261114e+00 1.47233137816590e-02 
7.62736136688291e-01 1.23989803545152e+00 1.47405462931459e-02 
7.65961236632005e-01 1.23027854727107e+00 1.47553155739339e-02 
7.69186336575718e-01 1.22059704300442e+00 1.47676075538074e-02 
7.72411436519432e-01 1.21085506320229e+00 1.47774092851772e-02 
7.75636536463146e-01 1.20105418347528e+00 1.47847089625754e-02 
7.78861636406859e-01 1.19119601390461e+00 1.47894959413783e-02 
7.82086736350573e-01 1.18128219841973e+00 1.47917607557185e-02 
7.85311836294287e-01 1.17131441414314e+00 1.47914951355553e-02 
7.88536936238001e-01 1.16129437070250e+00 1.47886920228721e-02 
7.91762036181714e-01 1.15122380951034e+00 1.47833455869726e-02 
7.94987136125428e-01 1.14110450301161e+00 1.47754512388384e-02 
7.98212236069142e-01 1.13093825389945e+00 1.47650056445268e-02 
8.01437336012855e-01 1.12072689429954e+00 1.47511384277604e-02 
8.04662435956569e-01 1.11047491805459e+00 1.47338354471174e-02 
8.07887535900283e-01 1.10018432792092e+00 1.47139969533213e-02 
8.11112635843997e-01 1.08985699836140e+00 1.46916767021241e-02 
8.14337735787710e-01 1.07949482761849e+00 1.46668785759904e-02 
8.17562835731424e-01 1.06909973678492e+00 1.46396077056652e-02 
8.20787935675138e-01 1.05867366884890e+00 1.46098704749502e-02 
8.24013035618851e-01 1.04821858771437e+00 1.45776745243964e-02 
8.27238135562565e-01 1.03773647719692e+00 1.45430287538997e-02 
8.30463235506279e-01 1.02722933999633e+00 1.45059433241788e-02 
8.33688335449992e-01 1.01669919664633e+00 1.44664296571245e-02 
8.36913435393706e-01 1.00614808444245e+00 1.44245004350085e-02 
8.40138535337420e-01 9.95578056348774e-01 1.43801695985351e-02 
8.43363635281134e-01 9.84991179884546e-01 1.43334523437319e-02 
8.46588735224847e-01 9.74389535991494e-01 1.42843651176695e-02 
8.49813835168561e-01 9.63775217882833e-01 1.42329256129994e-02 
8.53038935112275e-01 9.53150329874943e-01 1.41791527613111e-02 
8.56264035055988e-01 9.42516986202736e-01 1.41230667252995e-02 
8.59489134999702e-01 9.31877309819761e-01 1.40646888897416e-02 
8.62714234943416e-01 9.21233431184132e-01 1.40040418512860e-02 
8.65939334887129e-01 9.10587487031376e-01 1.39411494070510e-02 
8.69164434830843e-01 8.99941619135351e-01 1.38760365420381e-02 
8.72389534774557e-01 8.89297973058384e-01 1.38087294153644e-02 
8.75614634718271e-01 8.78658696891828e-01 1.37392553453193e-02 
8.78839734661984e-01 8.68025939988234e-01 1.36676427932540e-02 
8.82064834605698e-01 8.57401851686389e-01 1.35939213463158e-02 
8.85289934549412e-01 8.46788580030446e-01 1.35181216990381e-02 
8.88515034493125e-01 8.36188270484445e-01 1.34402756337954e-02 
8.91740134436839e-01 8.25603064643490e-01 1.33604160001449e-02 
8.94965234380553e-01 8.15035098942891e-01 1.32785766930684e-02 
8.98190334324267e-01 8.04486503366593e-01 1.31947926301314e-02 
9.01415434267980e-01 7.93959400156202e-01 1.31090997275819e-02 
9.04640534211694e-01 7.83455902521961e-01 1.30215348754123e-02 
9.07865634155408e-01 7.72978113357003e-01 1.29321359114058e-02 
9.11090734099121e-01 7.62528123956239e-01 1.28409415941915e-02 
9.14315834042835e-01 7.52108012741228e-01 1.27479915753390e-02 
9.17540933986549e-01 7.41719843992377e-01 1.26533263705189e-02 
9.20766033930262e-01 7.31365666589829e-01 1.25569873297582e-02 
9.23991133873976e-01 7.21047512764390e-01 1.24590166068243e-02 
9.27216233817690e-01 7.10767396859821e-01 1.23594571277699e-02 
9.30441333761404e-01 7.00527314107854e-01 1.22583525586733e-02 
9.33666433705117e-01 6.90329239417241e-01 1.21557472726108e-02 
9.36891533648831e-01 6.80175126178157e-01 1.20516863158951e-02 
9.40116633592545e-01 6.70066905083268e-01 1.19462153736240e-02 
9.43341733536258e-01 6.60006482966729e-01 1.18393807345742e-02 
9.46566833479972e-01 6.49995741662406e-01 1.17312292554832e-02 
9.49791933423686e-01 6.40036536882546e-01 1.16218083247606e-02 
9.53017033367400e-01 6.30130697118145e-01 1.15111658256724e-02 
9.56242133311113e-01 6.20280022562194e-01 1.13993500990418e-02 
9.59467233254827e-01 6.10486284056997e-01 1.12864099055116e-02 
9.62692333198541e-01 6.00751222066704e-01 1.11723943874121e-02 
9.65917433142254e-01 5.91076545676178e-01 1.10573530302843e-02 
9.69142533085968e-01 5.81463931617280e-01 1.09413356241023e-02 
9.72367633029682e-01 5.71915023323632e-01 1.08243922242437e-02 
9.75592732973395e-01 5.62431430014875e-01 1.07065731122560e-02 
9.78817832917109e-01 5.53014725811399e-01 1.05879287564671e-02 
9.82042932860823e-01 5.43666448880490e-01 1.04685097724889e-02 
9.85268032804537e-01 5.34388100614803e-01 1.03483668836625e-02 
9.88493132748250e-01 5.25181144844009e-01 1.02275508814956e-02 
9.91718232691964e-01 5.16047007080442e-01 1.01061125861395e-02 
9.94943332635678e-01 5.06987073799515e-01 9.98410280695555e-03 
9.98168432579391e-01 4.98002691755634e-01 9.86157230322107e-03 
1.00139353252311e+00 4.89095167334282e-01 9.73580195277969e-03 
