Energy(eV)           EEDF(eV^-(3/2))      Anisotropy(eV^-(3/2))
1.74455992833602e-01 3.57054646236766e-02 2.68628896506263e-03 
5.23367978500805e-01 3.55950362990279e-02 1.26191870855752e-02 
8.72279964168009e-01 3.54497866283522e-02 1.22441449207127e-02 
1.22119194983521e+00 3.52590050360036e-02 1.21192374581474e-02 
1.57010393550242e+00 3.50266407761093e-02 1.20288570009178e-02 
1.91901592116962e+00 3.47625134407624e-02 1.19471916157418e-02 
2.26792790683682e+00 3.44605452789329e-02 1.18673069887634e-02 
2.61683989250403e+00 3.41218608345247e-02 1.17768737378198e-02 
2.96575187817123e+00 3.37347815470453e-02 1.16708971898856e-02 
3.31466386383843e+00 3.33061932940558e-02 1.15493148754652e-02 
3.66357584950564e+00 3.28406360971034e-02 1.14142607527203e-02 
4.01248783517284e+00 3.23412680047221e-02 1.12653960258857e-02 
4.36139982084004e+00 3.18078783206867e-02 1.11043676028971e-02 
4.71031180650725e+00 3.12405269368685e-02 1.09329976821445e-02 
5.05922379217445e+00 3.06464548010055e-02 1.07503561567720e-02 
5.40813577784165e+00 3.00233389546076e-02 1.05582008096698e-02 
5.75704776350886e+00 2.93711219207287e-02 1.03575344240430e-02 
6.10595974917606e+00 2.86918221313644e-02 1.01489137002615e-02 
6.45487173484326e+00 2.79852307637584e-02 9.93392989919629e-03 
6.80378372051047e+00 2.72529387655166e-02 9.71429034634401e-03 
7.15269570617767e+00 2.64970263929581e-02 9.49080699393193e-03 
7.50160769184488e+00 2.57046274871708e-02 9.26737061036946e-03 
7.85051967751208e+00 2.48773539206018e-02 9.04451816326740e-03 
8.19943166317928e+00 2.40185066366805e-02 8.82395236159143e-03 
8.54834364884649e+00 2.31406539832465e-02 8.60535720379934e-03 
8.89725563451369e+00 2.22454805316523e-02 8.39029185310380e-03 
9.24616762018089e+00 2.13345433715847e-02 8.17949294495274e-03 
9.59507960584810e+00 2.04092690868667e-02 7.97356996948114e-03 
9.94399159151530e+00 1.94709585941564e-02 7.77369484534545e-03 
1.02929035771825e+01 1.85347238577200e-02 7.58000273435361e-03 
1.06418155628497e+01 1.76273668494620e-02 7.39070411113969e-03 
1.09907275485169e+01 1.67478817623237e-02 7.20739416685580e-03 
1.13396395341841e+01 1.58952718261453e-02 7.03008239816049e-03 
1.16885515198513e+01 1.50685572098376e-02 6.85769915324238e-03 
1.20374635055185e+01 1.42664120460419e-02 6.68786852065008e-03 
1.23863754911857e+01 1.34883216243806e-02 6.51892752589326e-03 
1.27352874768529e+01 1.27341209472062e-02 6.35091574103746e-03 
1.30841994625201e+01 1.20034491989199e-02 6.18360161030830e-03 
1.34331114481873e+01 1.12955252481369e-02 6.01563655473293e-03 
1.37820234338545e+01 1.06099994592995e-02 5.84594743752794e-03 
1.41309354195217e+01 9.94675141214847e-03 5.67355994957907e-03 
1.44798474051889e+01 9.30521536433903e-03 5.49704785448975e-03 
1.48287593908561e+01 8.68546592016294e-03 5.31579748529612e-03 
1.51776713765234e+01 8.08788107394441e-03 5.13188729779332e-03 
1.55265833621906e+01 7.52799906363416e-03 4.94437993664729e-03 
1.58754953478578e+01 7.00477325535826e-03 4.75591903774078e-03 
1.62244073335250e+01 6.51610972826145e-03 4.56347539984387e-03 
1.65733193191922e+01 6.06166865248126e-03 4.36834086390850e-03 
1.69222313048594e+01 5.63961596199934e-03 4.17109162673768e-03 
1.72711432905266e+01 5.24686791645192e-03 3.97197200053167e-03 
1.76200552761938e+01 4.87603531925858e-03 3.77320783410285e-03 
1.79689672618610e+01 4.52729441643520e-03 3.57542096067406e-03 
1.83178792475282e+01 4.19995661329030e-03 3.38078963348250e-03 
1.86667912331954e+01 3.89413427138245e-03 3.19073176403287e-03 
1.90157032188626e+01 3.60852569755491e-03 3.00671494119290e-03 
1.93646152045298e+01 3.34286219279436e-03 2.82932581318600e-03 
1.97135271901970e+01 3.09593515327220e-03 2.65951759981487e-03 
2.00624391758642e+01 2.86702234752815e-03 2.49724318873199e-03 
2.04113511615314e+01 2.65439644631975e-03 2.34318298161923e-03 
2.07602631471986e+01 2.45717637413249e-03 2.19711066979539e-03 
2.11091751328658e+01 2.27412788668575e-03 2.05908986932986e-03 
2.14580871185330e+01 2.10462645665552e-03 1.92859581721057e-03 
2.18069991042002e+01 1.94757263827979e-03 1.80558304062628e-03 
2.21559110898674e+01 1.80232982707427e-03 1.68966247460735e-03 
2.25048230755346e+01 1.66808406905358e-03 1.58089567240782e-03 
2.28537350612018e+01 1.54420234312260e-03 1.47884075046453e-03 
2.32026470468690e+01 1.42978219724711e-03 1.38328233082156e-03 
2.35515590325362e+01 1.32426666958590e-03 1.29364506635676e-03 
2.39004710182034e+01 1.22688251950331e-03 1.20971823834586e-03 
2.42493830038706e+01 1.13714064183761e-03 1.13101812706928e-03 
2.45982949895378e+01 1.05440163966933e-03 1.05735959500981e-03 
2.49472069752050e+01 9.78225786609948e-04 9.88259207941665e-04 
2.52961189608723e+01 9.07842081478191e-04 9.23535771331272e-04 
2.56450309465395e+01 8.42541511106305e-04 8.62944473544038e-04 
2.59939429322067e+01 7.81909361608925e-04 8.06250361380211e-04 
2.63428549178739e+01 7.25695223196868e-04 7.53168279697282e-04 
2.66917669035411e+01 6.73552469558128e-04 7.03572780017887e-04 
2.70406788892083e+01 6.25235408829397e-04 6.57187050911095e-04 
2.73895908748755e+01 5.80427355837996e-04 6.13858897819785e-04 
2.77385028605427e+01 5.38914478219035e-04 5.73331727999610e-04 
2.80874148462099e+01 5.00425853760135e-04 5.35464294625531e-04 
2.84363268318771e+01 4.64771354347812e-04 5.00029799863247e-04 
2.87852388175443e+01 4.31719315789251e-04 4.66902074092360e-04 
2.91341508032115e+01 4.01110226077264e-04 4.35890581666125e-04 
2.94830627888787e+01 3.72747186045316e-04 4.06888567465382e-04 
2.98319747745459e+01 3.46491741097149e-04 3.79731516136252e-04 
3.01808867602131e+01 3.22172794739875e-04 3.54305935243649e-04 
3.05297987458803e+01 2.99549360549154e-04 3.30561414261245e-04 
3.08787107315475e+01 2.78489962500207e-04 3.08391534337926e-04 
3.12276227172147e+01 2.58902166142091e-04 2.87673195170307e-04 
3.15765347028819e+01 2.40672312124811e-04 2.68330914960524e-04 
3.19254466885491e+01 2.23719368297044e-04 2.50257868175425e-04 
3.22743586742163e+01 2.07945071390215e-04 2.33387011386477e-04 
3.26232706598835e+01 1.93278448513761e-04 2.17625630547548e-04 
3.29721826455507e+01 1.79634541868398e-04 2.02914184507873e-04 
3.33210946312179e+01 1.66951251711482e-04 1.89172069082636e-04 
3.36700066168851e+01 1.55155136347630e-04 1.76346480917572e-04 
3.40189186025523e+01 1.44191912752913e-04 1.64374511045777e-04 
3.43678305882195e+01 1.34004886738389e-04 1.53219331136185e-04 
3.47167425738867e+01 1.24549591663671e-04 1.42827340931117e-04 
3.50656545595539e+01 1.15767816535015e-04 1.33155995276813e-04 
3.54145665452212e+01 1.07613367229484e-04 1.24145351296262e-04 
3.57634785308884e+01 1.00036269390894e-04 1.15753433261775e-04 
3.61123905165556e+01 9.29990323649970e-05 1.07930901247982e-04 
3.64613025022228e+01 8.64597128534049e-05 1.00643803961851e-04 
3.68102144878900e+01 8.03858714364262e-05 9.38504769657288e-05 
3.71591264735572e+01 7.47415156272636e-05 8.75212956611410e-05 
3.75080384592244e+01 6.94985813428479e-05 8.16203769934988e-05 
3.78569504448916e+01 6.46261716976153e-05 7.61218769325126e-05 
3.82058624305588e+01 6.01000117800006e-05 7.09948683737107e-05 
3.85547744162260e+01 5.58935708532195e-05 6.62167999365108e-05 
3.89036864018932e+01 5.19858561396492e-05 6.17610094013453e-05 
3.92525983875604e+01 4.83540787870941e-05 5.76078330238323e-05 
3.96015103732276e+01 4.49800871260860e-05 5.37342619121885e-05 
3.99504223588948e+01 4.18443019993352e-05 5.01241717677410e-05 
4.02993343445620e+01 3.89320261205003e-05 4.67599290047313e-05 
4.06482463302292e+01 3.62278142652669e-05 4.36281780899824e-05 
4.09971583158964e+01 3.37173677374909e-05 4.07123769817634e-05 
4.13460703015636e+01 3.13856133930108e-05 3.79985518510763e-05 
4.16949822872308e+01 2.92202880623827e-05 3.54709758892135e-05 
4.20438942728980e+01 2.72085275813038e-05 3.31175992610317e-05 
4.23928062585652e+01 2.53398098308422e-05 3.09249621819215e-05 
4.27417182442324e+01 2.36031476482152e-05 2.88826689610862e-05 
4.30906302298996e+01 2.19895087584805e-05 2.69791890656111e-05 
4.34395422155668e+01 2.04895022974293e-05 2.52055494192456e-05 
4.37884542012340e+01 1.90953714624003e-05 2.35518629631351e-05 
4.41373661869012e+01 1.77990841146768e-05 2.20103805377233e-05 
4.44862781725684e+01 1.65939759177501e-05 2.05726165446166e-05 
4.48351901582356e+01 1.54731721966416e-05 1.92318874627679e-05 
4.51841021439029e+01 1.44309568361466e-05 1.79813055528580e-05 
4.55330141295701e+01 1.34618359692196e-05 1.68152807092563e-05 
4.58819261152373e+01 1.25607748331119e-05 1.57277900463170e-05 
4.62308381009045e+01 1.17226353617075e-05 1.47136809798881e-05 
4.65797500865717e+01 1.09430997507439e-05 1.37674246586909e-05 
4.69286620722389e+01 1.02177748474843e-05 1.28845806174202e-05 
4.72775740579061e+01 9.54295535860256e-06 1.20604031839245e-05 
4.76264860435733e+01 8.91488226401464e-06 1.12910590073429e-05 
4.79753980292405e+01 8.33037430072881e-06 1.05724707871391e-05 
4.83243100149077e+01 7.78621272608011e-06 9.90132862666360e-06 
4.86732220005749e+01 7.27966470361519e-06 9.27412642444306e-06 
4.90221339862421e+01 6.80797215665202e-06 8.68800378738532e-06 
4.93710459719093e+01 6.36878626200649e-06 8.13994249139312e-06 
4.97199579575765e+01 5.95974209680618e-06 7.62746834285453e-06 
5.00688699432437e+01 5.57881994016352e-06 7.14758517981252e-06 
5.04177819289109e+01 5.22292205693096e-06 6.69865661893431e-06 
5.07666939145781e+01 4.89001638338711e-06 6.27838889907198e-06 
5.11156059002453e+01 4.57853926415038e-06 5.88487636054332e-06 
5.14645178859125e+01 4.28715179508216e-06 5.51629969291859e-06 
5.18134298715797e+01 4.01449181254500e-06 5.17114366139720e-06 
5.21623418572469e+01 3.75938946598566e-06 4.84782167497181e-06 
5.25112538429141e+01 3.52065774408013e-06 4.54500679919327e-06 
5.28601658285813e+01 3.29727432380707e-06 4.26131486306439e-06 
5.32090778142485e+01 3.08820450584675e-06 3.99558362645274e-06 
5.35579897999157e+01 2.89255473207605e-06 3.74660506385434e-06 
5.39069017855829e+01 2.70942280051009e-06 3.51336100622887e-06 
5.42558137712501e+01 2.53802756125583e-06 3.29479679480808e-06 
5.46047257569173e+01 2.37758211078245e-06 3.09002038970057e-06 
5.49536377425845e+01 2.22740343799885e-06 2.89811080755442e-06 
5.53025497282518e+01 2.08680499487661e-06 2.71828637188438e-06 
5.56514617139190e+01 1.95518946631750e-06 2.54974244856836e-06 
5.60003736995862e+01 1.83195769295919e-06 2.39179386012038e-06 
5.63492856852534e+01 1.71658721233284e-06 2.24373737343466e-06 
5.66981976709206e+01 1.60855498808247e-06 2.10497229325729e-06 
5.70471096565878e+01 1.50740395005388e-06 1.97488381095491e-06 
5.73960216422550e+01 1.41267739191027e-06 1.85294519744231e-06 
5.77449336279222e+01 1.32397538157473e-06 1.73861877685004e-06 
5.80938456135894e+01 1.24089902731857e-06 1.63144259125928e-06 
5.84427575992566e+01 1.16309833190081e-06 1.53094627089373e-06 
5.87916695849238e+01 1.09022481125267e-06 1.43672458735752e-06 
5.91405815705910e+01 1.02197211577755e-06 1.34836593068695e-06 
5.94894935562582e+01 9.58035723353546e-07 1.26551477366819e-06 
5.98384055419254e+01 8.98147442839957e-07 1.18781084647070e-06 
6.01873175275926e+01 8.42041128449522e-07 1.11494279681502e-06 
6.05362295132598e+01 7.89482569336357e-07 1.04659539303223e-06 
6.08851414989270e+01 7.40238908270917e-07 9.82495249494231e-07 
6.12340534845942e+01 6.94104363639460e-07 9.22365848620257e-07 
6.15829654702614e+01 6.50875325241764e-07 8.65966655924854e-07 
6.19318774559286e+01 6.10371565701344e-07 8.13055441241449e-07 
6.22807894415958e+01 5.72415006971455e-07 7.63421036910283e-07 
6.26297014272630e+01 5.36847775306575e-07 7.16851196450726e-07 
6.29786134129302e+01 5.03514086999209e-07 6.73160501091923e-07 
6.33275253985974e+01 4.72275625478210e-07 6.32162933044451e-07 
6.36764373842646e+01 4.42996078496299e-07 5.93695660696344e-07 
6.40253493699318e+01 4.15554242283150e-07 5.57595606666834e-07 
6.43742613555990e+01 3.89830815236901e-07 5.23719743414599e-07 
6.47231733412662e+01 3.65719570655595e-07 4.91925087313208e-07 
6.50720853269334e+01 3.43116069558049e-07 4.62086008216392e-07 
6.54209973126007e+01 3.21927193052392e-07 4.34077096083633e-07 
6.57699092982679e+01 3.02061492317915e-07 4.07787948783884e-07 
6.61188212839351e+01 2.83437325443674e-07 3.83108542062175e-07 
6.64677332696023e+01 2.65974599927790e-07 3.59941874514077e-07 
6.68166452552695e+01 2.49601721243283e-07 3.38191412088204e-07 
6.71655572409367e+01 2.34248525709738e-07 3.17771875722499e-07 
6.75144692266039e+01 2.19852219604684e-07 2.98598511983719e-07 
6.78633812122711e+01 2.06351325273762e-07 2.80596343097119e-07 
6.82122931979383e+01 1.93690758339538e-07 2.63690945181320e-07 
6.85612051836055e+01 1.81816641235454e-07 2.47816371554240e-07 
6.89101171692727e+01 1.70680645273929e-07 2.32907269533346e-07 
6.92590291549399e+01 1.60235542784122e-07 2.18905634479366e-07 
6.96079411406071e+01 1.50438925234078e-07 2.05754027997070e-07 
6.99568531262743e+01 1.41249388228066e-07 1.93402193106398e-07 
7.03057651119415e+01 1.32630541693284e-07 1.81801122209634e-07 
7.06546770976087e+01 1.24547186514761e-07 1.70906808800853e-07 
7.10035890832759e+01 1.16966210199740e-07 1.60675461413643e-07 
7.13525010689431e+01 1.09855384946886e-07 1.51066903101170e-07 
7.17014130546103e+01 1.03185694408810e-07 1.42041553967116e-07 
7.20503250402775e+01 9.69289177297803e-08 1.33564119033321e-07 
7.23992370259447e+01 9.10596221473918e-08 1.25599861539793e-07 
7.27481490116119e+01 8.55530892097825e-08 1.18117765355110e-07 
7.30970609972791e+01 8.03870222472305e-08 1.11087333231613e-07 
7.34459729829463e+01 7.55397652245725e-08 1.04481300154107e-07 
7.37948849686135e+01 7.09917667884397e-08 9.82728810500237e-08 
7.41437969542807e+01 6.67240495204633e-08 9.24381001550789e-08 
7.44927089399479e+01 6.27194660537511e-08 8.69534245122218e-08 
7.48416209256151e+01 5.89613826364446e-08 8.17976935941802e-08 
7.51905329112823e+01 5.54345518890402e-08 7.69489890230555e-08 
7.55394448969496e+01 5.21204100170514e-08 7.23917640453152e-08 
7.58883568826168e+01 4.90062412670286e-08 6.81066242853489e-08 
7.62372688682840e+01 4.60796818663344e-08 6.40775089650189e-08 
7.65861808539512e+01 4.33295238103538e-08 6.02886722261220e-08 
7.69350928396184e+01 4.07448765171209e-08 5.67259400099026e-08 
7.72840048252856e+01 3.83158596927310e-08 5.33754279225085e-08 
7.76329168109528e+01 3.60328789909220e-08 5.02246248133558e-08 
7.79818287966200e+01 3.38872234849085e-08 4.72612859260901e-08 
7.83307407822872e+01 3.18704395246180e-08 4.44743670620885e-08 
7.86796527679544e+01 2.99748461710699e-08 4.18530679489875e-08 
7.90285647536216e+01 2.81929937328432e-08 3.93876384117802e-08 
7.93774767392888e+01 2.65181085775184e-08 3.70685500104250e-08 
7.97263887249560e+01 2.49436248268593e-08 3.48871918980670e-08 
8.00753007106232e+01 2.34635683590059e-08 3.28354203001211e-08 
8.04242126962904e+01 2.20724286244987e-08 3.09057965674067e-08 
8.07731246819576e+01 2.07649808690378e-08 2.90911088657744e-08 
8.11220366676248e+01 1.95360493698008e-08 2.73846252047764e-08 
8.14709486532920e+01 1.83809208420869e-08 2.57796877182854e-08 
8.18198606389592e+01 1.72950403028450e-08 2.42702698940806e-08 
8.21687726246264e+01 1.62742569588580e-08 2.28505068987507e-08 
8.25176846102936e+01 1.53145611859495e-08 2.15150856422546e-08 
8.28665965959608e+01 1.44122967653919e-08 2.02588385824576e-08 
8.32155085816280e+01 1.35639333205301e-08 1.90770805383501e-08 
8.35644205672952e+01 1.27662495862613e-08 1.79652572306546e-08 
8.39133325529624e+01 1.20161364375362e-08 1.69192362473060e-08 
8.42622445386296e+01 1.13107552133396e-08 1.59350028542762e-08 
8.46111565242968e+01 1.06473671468523e-08 1.50089115959677e-08 
8.49600685099640e+01 1.00234701866220e-08 1.41374228415742e-08 
8.53089804956313e+01 9.43665122732298e-09 1.33173201603201e-08 
8.56578924812985e+01 8.88470441187172e-09 1.25454820550306e-08 
8.60068044669657e+01 8.36550306069055e-09 1.18190700116721e-08 
8.63557164526329e+01 7.87710200380436e-09 1.11353305152729e-08 
8.67046284383001e+01 7.41762654599024e-09 1.04917578258390e-08 
8.70535404239673e+01 6.98536101898463e-09 9.88592232527555e-09 
8.74024524096345e+01 6.57865247410534e-09 9.31561127200621e-09 
8.77513643953017e+01 6.19598735676051e-09 8.77867981081493e-09 
8.81002763809689e+01 5.83590794485303e-09 8.27317315798346e-09 
8.84491883666361e+01 5.49707874524131e-09 7.79719766132682e-09 
8.87981003523033e+01 5.17821393095935e-09 7.34902682070643e-09 
8.91470123379705e+01 4.87813484812453e-09 6.92698878711944e-09 
8.94959243236377e+01 4.59570702152971e-09 6.52955771334827e-09 
8.98448363093049e+01 4.32989002683618e-09 6.15525865627632e-09 
9.01937482949721e+01 4.07968504144880e-09 5.80277853046466e-09 
9.05426602806393e+01 3.84421000182616e-09 5.47082180887951e-09 
9.08915722663065e+01 3.62257337328168e-09 5.15822059131265e-09 
9.12404842519737e+01 3.41395699753110e-09 4.86381012310355e-09 
9.15893962376409e+01 3.21757465984699e-09 4.58652621221976e-09 
9.19383082233081e+01 3.03270449367190e-09 4.32534069379349e-09 
9.22872202089753e+01 2.85865297519257e-09 4.07931360950808e-09 
9.26361321946425e+01 2.69478303145974e-09 3.84753710310568e-09 
9.29850441803097e+01 2.54048273781004e-09 3.62918071575537e-09 
9.33339561659769e+01 2.39518970989966e-09 3.42344258918770e-09 
9.36828681516441e+01 2.25836387792204e-09 3.22958880294524e-09 
9.40317801373113e+01 2.12950866315293e-09 3.04691091446427e-09 
9.43806921229785e+01 2.00814728778632e-09 2.87476013712913e-09 
9.47296041086457e+01 1.89384116795223e-09 2.71251037813272e-09 
9.50785160943129e+01 1.78616929114659e-09 2.55958794702162e-09 
9.54274280799802e+01 1.68474419862866e-09 2.41543936551417e-09 
9.57763400656474e+01 1.58919402550110e-09 2.27955720220729e-09 
9.61252520513146e+01 1.49917639455974e-09 2.15145202627147e-09 
9.64741640369818e+01 1.41436276849989e-09 2.03067488303175e-09 
9.68230760226490e+01 1.33445053351351e-09 1.91679284778355e-09 
9.71719880083162e+01 1.25914936006742e-09 1.80940858721154e-09 
9.75208999939834e+01 1.18819171682440e-09 1.70813904235619e-09 
9.78698119796506e+01 1.12132097699740e-09 1.61263246071336e-09 
9.82187239653178e+01 1.05830057065882e-09 1.52254980023870e-09 
9.85676359509850e+01 9.98903608712015e-10 1.43757956512355e-09 
9.89165479366522e+01 9.42920853616252e-10 1.35742157703293e-09 
9.92654599223194e+01 8.90151663298164e-10 1.28179990281962e-09 
9.96143719079866e+01 8.40410936131741e-10 1.21044868613759e-09 
9.99632838936538e+01 7.93521203294770e-10 1.14312002876335e-09 
1.00312195879321e+02 7.49305956623593e-10 1.07958569502747e-09 
1.00661107864988e+02 7.07590960379377e-10 1.01964324502771e-09 
1.01010019850655e+02 6.68234059868078e-10 9.63079461933824e-10 
1.01358931836323e+02 6.31098801824302e-10 9.09703102360758e-10 
1.01707843821990e+02 5.96059072629503e-10 8.59329957552998e-10 
1.02056755807657e+02 5.62993837011636e-10 8.11790307013082e-10 
1.02405667793324e+02 5.31791189196836e-10 7.66920709865922e-10 
1.02754579778991e+02 5.02343746976867e-10 7.24570514663971e-10 
1.03103491764659e+02 4.74552191302544e-10 6.84594675468276e-10 
1.03452403750326e+02 4.48321232724805e-10 6.46859439358848e-10 
1.03801315735993e+02 4.23562705070625e-10 6.11236057100712e-10 
1.04150227721660e+02 4.00192031947691e-10 5.77605753978210e-10 
1.04499139707327e+02 3.78130931586066e-10 5.45854221724330e-10 
1.04848051692995e+02 3.57304320382496e-10 5.15875964505177e-10 
1.05196963678662e+02 3.37642678566964e-10 4.87569473392250e-10 
1.05545875664329e+02 3.19079335836565e-10 4.60841027361969e-10 
1.05894787649996e+02 3.01552541062850e-10 4.35600464278279e-10 
1.06243699635663e+02 2.85003082087774e-10 4.11764506394513e-10 
1.06592611621331e+02 2.69376097093744e-10 3.89253052843081e-10 
1.06941523606998e+02 2.54618986744567e-10 3.67992090120142e-10 
1.07290435592665e+02 2.40682999981635e-10 3.47910440670406e-10 
1.07639347578332e+02 2.27521402011460e-10 3.28942311014912e-10 
1.07988259563999e+02 2.15090863070289e-10 3.11024439362978e-10 
1.08337171549667e+02 2.03349850390970e-10 2.94098327251002e-10 
