Energy(eV)           EEDF(eV^-(3/2))      Anisotropy(eV^-(3/2))
1.14600915890052e-03 4.20695083349773e+00 2.66633898436861e-03 
3.43802747670155e-03 4.18333297661722e+00 3.68540076970649e-03 
5.73004579450259e-03 4.14741040009409e+00 5.33725192217152e-03 
8.02206411230362e-03 4.10715818876429e+00 6.52560890204148e-03 
1.03140824301047e-02 4.06525197852416e+00 7.42996936557339e-03 
1.26061007479057e-02 4.02353437449435e+00 8.14359527451729e-03 
1.48981190657067e-02 3.98243619129628e+00 8.74046206079864e-03 
1.71901373835078e-02 3.94219886181529e+00 9.28411037969369e-03 
1.94821557013088e-02 3.90223937455795e+00 9.77238421404831e-03 
2.17741740191098e-02 3.86307606378519e+00 1.01983496669013e-02 
2.40661923369109e-02 3.82447535108708e+00 1.05623788424289e-02 
2.63582106547119e-02 3.78697809009179e+00 1.08236710772486e-02 
2.86502289725129e-02 3.75104657658729e+00 1.09853347769096e-02 
3.09422472903140e-02 3.71707227083800e+00 1.11636194135212e-02 
3.32342656081150e-02 3.68384544140658e+00 1.13911933011158e-02 
3.55262839259160e-02 3.65146061695638e+00 1.15683861104824e-02 
3.78183022437171e-02 3.62013211549792e+00 1.16861245078721e-02 
4.01103205615181e-02 3.59004748344859e+00 1.17839930874733e-02 
4.24023388793191e-02 3.56094258362593e+00 1.19015404433489e-02 
4.46943571971202e-02 3.53259899352533e+00 1.20079904279550e-02 
4.69863755149212e-02 3.50513482485113e+00 1.20731088028754e-02 
4.92783938327222e-02 3.47865484077243e+00 1.21001765942252e-02 
5.15704121505233e-02 3.45322827066111e+00 1.21013189812315e-02 
5.38624304683243e-02 3.42883427725978e+00 1.20760583227283e-02 
5.61544487861253e-02 3.40554305685342e+00 1.20140258278634e-02 
5.84464671039264e-02 3.38341493171279e+00 1.19154410556801e-02 
6.07384854217274e-02 3.36250074847885e+00 1.17803584078456e-02 
6.30305037395285e-02 3.34284219632783e+00 1.16086733580096e-02 
6.53225220573295e-02 3.32447204604073e+00 1.14001298902712e-02 
6.76145403751305e-02 3.30741431138308e+00 1.11543294051084e-02 
6.99065586929316e-02 3.29168433458303e+00 1.09236693715506e-02 
7.21985770107326e-02 3.27697335345597e+00 1.07807807390832e-02 
7.44905953285336e-02 3.26292577930545e+00 1.06802681322484e-02 
7.67826136463347e-02 3.24956086065668e+00 1.05572949187761e-02 
7.90746319641357e-02 3.23689444150109e+00 1.04118402602637e-02 
8.13666502819367e-02 3.22493901893428e+00 1.02438352399437e-02 
8.36586685997378e-02 3.21370378594831e+00 1.00531652492486e-02 
8.59506869175388e-02 3.20319465964537e+00 9.83967277189266e-03 
8.82427052353398e-02 3.19341429523136e+00 9.60316061015497e-03 
9.05347235531409e-02 3.18436208624963e+00 9.34339560590089e-03 
9.28267418709419e-02 3.17603415162805e+00 9.06011291912592e-03 
9.51187601887429e-02 3.16842331023883e+00 8.75302094103246e-03 
9.74107785065440e-02 3.16151904381029e+00 8.42180693980421e-03 
9.97027968243450e-02 3.15530744918550e+00 8.11099998615677e-03 
1.01994815142146e-01 3.14963427022319e+00 7.90663487039910e-03 
1.04286833459947e-01 3.14426193187143e+00 7.77125814127707e-03 
1.06578851777748e-01 3.13919182898279e+00 7.62330081425527e-03 
1.08870870095549e-01 3.13442437907741e+00 7.46271738385105e-03 
1.11162888413350e-01 3.12995902289501e+00 7.28945451506796e-03 
1.13454906731151e-01 3.12579422341654e+00 7.10345184303707e-03 
1.15746925048952e-01 3.12192746342680e+00 6.90464286703355e-03 
1.18038943366753e-01 3.11835524170061e+00 6.69295595012017e-03 
1.20330961684554e-01 3.11507306790738e+00 6.51204673176570e-03 
1.22622980002355e-01 3.11198790171969e+00 6.39177696786175e-03 
1.24914998320156e-01 3.10905084205632e+00 6.28917598362459e-03 
1.27207016637957e-01 3.10626217463164e+00 6.17891285153782e-03 
1.29499034955758e-01 3.10362182596397e+00 6.06097327187626e-03 
1.31791053273559e-01 3.10112936351528e+00 5.93534069646878e-03 
1.34083071591361e-01 3.09878399556675e+00 5.80199653351519e-03 
1.36375089909162e-01 3.09658457084089e+00 5.66092037354271e-03 
1.38667108226963e-01 3.09452957788252e+00 5.51209023875706e-03 
1.40959126544764e-01 3.09261714421268e+00 5.35548285877115e-03 
1.43251144862565e-01 3.09084503527080e+00 5.19107397676057e-03 
1.45543163180366e-01 3.08921065316228e+00 5.01883869160243e-03 
1.47835181498167e-01 3.08771103523033e+00 4.83875184383979e-03 
1.50127199815968e-01 3.08634285247247e+00 4.67748917223145e-03 
1.52419218133769e-01 3.08507164817947e+00 4.56008371793059e-03 
1.54711236451570e-01 3.08387151795387e+00 4.46054470930239e-03 
1.57003254769371e-01 3.08274179640403e+00 4.35616120784669e-03 
1.59295273087172e-01 3.08168167736478e+00 4.24692601195246e-03 
1.61587291404973e-01 3.08069021370565e+00 4.13283160884041e-03 
1.63879309722774e-01 3.07976631710157e+00 4.01387026854829e-03 
1.66171328040575e-01 3.07890875776879e+00 3.89003414941412e-03 
1.68463346358376e-01 3.07811616416953e+00 3.76131541775953e-03 
1.70755364676177e-01 3.07738702268858e+00 3.66159393345140e-03 
1.73047382993978e-01 3.07669300688612e+00 3.60126071878186e-03 
1.75339401311779e-01 3.07602843451353e+00 3.54556053637243e-03 
1.77631419629580e-01 3.07539320444429e+00 3.48721257920983e-03 
1.79923437947381e-01 3.07478717346676e+00 3.42621554607602e-03 
1.82215456265182e-01 3.07421015627944e+00 3.36256801508323e-03 
1.84507474582983e-01 3.07366192548071e+00 3.29626845710405e-03 
1.86799492900784e-01 3.07314221155322e+00 3.22731525049991e-03 
1.89091511218585e-01 3.07265070284330e+00 3.15570669734013e-03 
1.91383529536386e-01 3.07218704553555e+00 3.08144104128708e-03 
1.93675547854187e-01 3.07175084362298e+00 3.00451648750036e-03 
1.95967566171988e-01 3.07134165887283e+00 2.92493122497547e-03 
1.98259584489789e-01 3.07095901078863e+00 2.84268345173296e-03 
2.00551602807591e-01 3.07060237656864e+00 2.79510768978809e-03 
2.02843621125392e-01 3.07025224431598e+00 2.79824109504760e-03 
2.05135639443193e-01 3.06990196068062e+00 2.81432359153837e-03 
2.07427657760994e-01 3.06955159013796e+00 2.83006300839382e-03 
2.09719676078795e-01 3.06920119644868e+00 2.84545952410785e-03 
2.12011694396596e-01 3.06885084265915e+00 2.86051331722428e-03 
2.14303712714397e-01 3.06850059110197e+00 2.87522456624521e-03 
2.16595731032198e-01 3.06815050339646e+00 2.88959344954196e-03 
2.18887749349999e-01 3.06780064044910e+00 2.90362014528861e-03 
2.21179767667800e-01 3.06745106245412e+00 2.91730483138983e-03 
2.23471785985601e-01 3.06710182889393e+00 2.93064768540421e-03 
2.25763804303402e-01 3.06675299853973e+00 2.94364888446510e-03 
2.28055822621203e-01 3.06640462945199e+00 2.95630860522505e-03 
2.30347840939004e-01 3.06605677898097e+00 2.96862702376998e-03 
2.32639859256805e-01 3.06570950376733e+00 2.98060431555886e-03 
2.34931877574606e-01 3.06536285974262e+00 2.99224065535759e-03 
2.37223895892407e-01 3.06501690212986e+00 3.00353621716659e-03 
2.39515914210208e-01 3.06467168544411e+00 3.01449117416528e-03 
2.41807932528009e-01 3.06432726349300e+00 3.02510569861166e-03 
2.44099950845810e-01 3.06398368937735e+00 3.03537996182276e-03 
2.46391969163611e-01 3.06364101549171e+00 3.04531413410293e-03 
2.48683987481412e-01 3.06329929352493e+00 3.05490838466969e-03 
2.50976005799213e-01 3.06295857446078e+00 3.11809053339486e-03 
2.53268024117014e-01 3.06259495601364e+00 3.23856188291862e-03 
2.55560042434815e-01 3.06220550356216e+00 3.36476398076255e-03 
2.57852060752616e-01 3.06178914444918e+00 3.49261638659043e-03 
2.60144079070417e-01 3.06134478971376e+00 3.62211133825584e-03 
2.62436097388218e-01 3.06087133424275e+00 3.75324070884553e-03 
2.64728115706020e-01 3.06036765693006e+00 3.88599599558212e-03 
2.67020134023821e-01 3.05983262084387e+00 4.02036830886361e-03 
2.69312152341622e-01 3.05926507340199e+00 4.15634836137329e-03 
2.71604170659423e-01 3.05866384655554e+00 4.29392645724214e-03 
2.73896188977224e-01 3.05802775698133e+00 4.43309248130902e-03 
2.76188207295025e-01 3.05735560628286e+00 4.57383588839544e-03 
2.78480225612826e-01 3.05664618120050e+00 4.71614569265008e-03 
2.80772243930627e-01 3.05589825383078e+00 4.86001045693108e-03 
2.83064262248428e-01 3.05511058185522e+00 5.00541828223717e-03 
2.85356280566229e-01 3.05428190877873e+00 5.15235679721111e-03 
2.87648298884030e-01 3.05341096417793e+00 5.30081314766569e-03 
2.89940317201831e-01 3.05249646395956e+00 5.45077398618965e-03 
2.92232335519632e-01 3.05153711062908e+00 5.60222546180729e-03 
2.94524353837433e-01 3.05053159356992e+00 5.75515320971550e-03 
2.96816372155234e-01 3.04947858933325e+00 5.90954234110492e-03 
2.99108390473035e-01 3.04837676193871e+00 6.06744342355249e-03 
3.01400408790836e-01 3.04722324026823e+00 6.24547018900184e-03 
3.03692427108637e-01 3.04600403319549e+00 6.44102862557688e-03 
3.05984445426438e-01 3.04471698705184e+00 6.63842136441918e-03 
3.08276463744239e-01 3.04335992832094e+00 6.83761982626976e-03 
3.10568482062040e-01 3.04193066437732e+00 7.03859433993678e-03 
3.12860500379841e-01 3.04042698425405e+00 7.24131412269115e-03 
3.15152518697642e-01 3.03884665943983e+00 7.44574726115179e-03 
3.17444537015443e-01 3.03718744470609e+00 7.65186069267551e-03 
3.19736555333244e-01 3.03544707896438e+00 7.85962018728168e-03 
3.22028573651045e-01 3.03362328615445e+00 8.06899033014482e-03 
3.24320591968846e-01 3.03171377616342e+00 8.27993450466616e-03 
3.26612610286647e-01 3.02971624577638e+00 8.49241487620354e-03 
3.28904628604448e-01 3.02762837965857e+00 8.70639237646836e-03 
3.31196646922249e-01 3.02544785136965e+00 8.92182668859079e-03 
3.33488665240050e-01 3.02317232441013e+00 9.13867623294499e-03 
3.35780683557852e-01 3.02079945330015e+00 9.35689815376160e-03 
3.38072701875653e-01 3.01832688469098e+00 9.57644830654943e-03 
3.40364720193454e-01 3.01575225850908e+00 9.79728124635086e-03 
3.42656738511255e-01 3.01307320913312e+00 1.00193502169182e-02 
3.44948756829056e-01 3.01028736660381e+00 1.02426071408162e-02 
3.47240775146857e-01 3.00739235786664e+00 1.04670026104824e-02 
3.49532793464658e-01 3.00438580804750e+00 1.06965003423589e-02 
3.51824811782459e-01 3.00126073225585e+00 1.09405056620358e-02 
3.54116830100260e-01 2.99800336791459e+00 1.11947933446088e-02 
3.56408848418061e-01 2.99461068273896e+00 1.14501433137682e-02 
3.58700866735862e-01 2.99107964855601e+00 1.17064836182320e-02 
3.60992885053663e-01 2.98740724340407e+00 1.19637404160030e-02 
3.63284903371464e-01 2.98359045368303e+00 1.22218379739021e-02 
3.65576921689265e-01 2.97962627635472e+00 1.24806986692525e-02 
3.67868940007066e-01 2.97551172119291e+00 1.27402429937991e-02 
3.70160958324867e-01 2.97124381308176e+00 1.30003895599200e-02 
3.72452976642668e-01 2.96681959436208e+00 1.32610551092140e-02 
3.74744994960469e-01 2.96223612722407e+00 1.35221545235122e-02 
3.77037013278270e-01 2.95749049614562e+00 1.37836008383817e-02 
3.79329031596071e-01 2.95257981037467e+00 1.40453052591929e-02 
3.81621049913872e-01 2.94750120645442e+00 1.43071771798034e-02 
3.83913068231673e-01 2.94225185078973e+00 1.45691242039258e-02 
3.86205086549474e-01 2.93682894225311e+00 1.48310521692321e-02 
3.88497104867275e-01 2.93122971482858e+00 1.50928651742385e-02 
3.90789123185076e-01 2.92545144029151e+00 1.53544656080242e-02 
3.93081141502877e-01 2.91949143092236e+00 1.56157541828565e-02 
3.95373159820678e-01 2.91334704225228e+00 1.58766299697432e-02 
3.97665178138479e-01 2.90701567583827e+00 1.61369904369428e-02 
3.99957196456281e-01 2.90049478206552e+00 1.63940979782773e-02 
4.02249214774082e-01 2.89378620073770e+00 1.66450945727023e-02 
4.04541233091883e-01 2.88689234539257e+00 1.68925310728159e-02 
4.06833251409684e-01 2.87981106515357e+00 1.71390746290788e-02 
4.09125269727485e-01 2.87254026398797e+00 1.73846247451010e-02 
4.11417288045286e-01 2.86507790322503e+00 1.76290797736142e-02 
4.13709306363087e-01 2.85742200408195e+00 1.78723369684293e-02 
4.16001324680888e-01 2.84957065019503e+00 1.81142925390257e-02 
4.18293342998689e-01 2.84152199015317e+00 1.83548417077733e-02 
4.20585361316490e-01 2.83327424003092e+00 1.85938787697961e-02 
4.22877379634291e-01 2.82482568591807e+00 1.88312971554567e-02 
4.25169397952092e-01 2.81617468644272e+00 1.90669894954438e-02 
4.27461416269893e-01 2.80731967528471e+00 1.93008476884484e-02 
4.29753434587694e-01 2.79825916367633e+00 1.95327629713986e-02 
4.32045452905495e-01 2.78899174288671e+00 1.97626259922396e-02 
4.34337471223296e-01 2.77951608668691e+00 1.99903268852063e-02 
4.36629489541097e-01 2.76983095379193e+00 2.02157553485516e-02 
4.38921507858898e-01 2.75993519027634e+00 2.04388007247009e-02 
4.41213526176699e-01 2.74982773195995e+00 2.06593520827559e-02 
4.43505544494500e-01 2.73950760675978e+00 2.08772983033041e-02 
4.45797562812301e-01 2.72897393700478e+00 2.10925281654755e-02 
4.48089581130102e-01 2.71822594170950e+00 2.13049304361726e-02 
4.50381599447903e-01 2.70726293880300e+00 2.15143939613953e-02 
4.52673617765704e-01 2.69608434730915e+00 2.17208077595878e-02 
4.54965636083505e-01 2.68468968947454e+00 2.19240611169183e-02 
4.57257654401306e-01 2.67307859284009e+00 2.21240436843972e-02 
4.59549672719107e-01 2.66125079225256e+00 2.23206455767419e-02 
4.61841691036908e-01 2.64920613181201e+00 2.25137574728764e-02 
4.64133709354709e-01 2.63694456675141e+00 2.27032707179644e-02 
4.66425727672511e-01 2.62446616524446e+00 2.28890774268602e-02 
4.68717745990312e-01 2.61177111013777e+00 2.30710705888529e-02 
4.71009764308113e-01 2.59885970060360e+00 2.32491441735709e-02 
4.73301782625914e-01 2.58573235370930e+00 2.34231932379356e-02 
4.75593800943715e-01 2.57238960589971e+00 2.35931140340132e-02 
4.77885819261516e-01 2.55883211438879e+00 2.37588041176201e-02 
4.80177837579317e-01 2.54506065845671e+00 2.39201624575465e-02 
4.82469855897118e-01 2.53107614064902e+00 2.40770895452361e-02 
4.84761874214919e-01 2.51687958787406e+00 2.42294875047777e-02 
4.87053892532720e-01 2.50247215239538e+00 2.43772602030348e-02 
4.89345910850521e-01 2.48785511271567e+00 2.45203133597588e-02 
4.91637929168322e-01 2.47302987434905e+00 2.46585546575199e-02 
4.93929947486123e-01 2.45799797047835e+00 2.47918938512699e-02 
4.96221965803924e-01 2.44276106249457e+00 2.49202428773788e-02 
4.98513984121725e-01 2.42732094041539e+00 2.50435159619602e-02 
5.00806002439526e-01 2.41167952318010e+00 2.51595903851024e-02 
5.03098020757327e-01 2.39584441406457e+00 2.52681182098424e-02 
5.05390039075128e-01 2.37981875312709e+00 2.53711076828379e-02 
5.07682057392929e-01 2.36360483134134e+00 2.54688455884818e-02 
5.09974075710730e-01 2.34720506138211e+00 2.55612634079018e-02 
5.12266094028531e-01 2.33062197722811e+00 2.56482953990582e-02 
5.14558112346332e-01 2.31385823363819e+00 2.57298786873126e-02 
5.16850130664133e-01 2.29691660549929e+00 2.58059533539372e-02 
5.19142148981934e-01 2.27979998704513e+00 2.58764625224086e-02 
5.21434167299735e-01 2.26251139094443e+00 2.59413524423124e-02 
5.23726185617536e-01 2.24505394725792e+00 2.60005725706873e-02 
5.26018203935337e-01 2.22743090226349e+00 2.60540756506561e-02 
5.28310222253138e-01 2.20964561714893e+00 2.61018177871672e-02 
5.30602240570940e-01 2.19170156657219e+00 2.61437585196957e-02 
5.32894258888741e-01 2.17360233708895e+00 2.61798608917407e-02 
5.35186277206542e-01 2.15535162544791e+00 2.62100915169685e-02 
5.37478295524343e-01 2.13695323675392e+00 2.62344206418578e-02 
5.39770313842144e-01 2.11841108249989e+00 2.62528222046856e-02 
5.42062332159945e-01 2.09972917846811e+00 2.62652738907230e-02 
5.44354350477746e-01 2.08091164250216e+00 2.62717571835052e-02 
5.46646368795547e-01 2.06196269215075e+00 2.62722574120366e-02 
5.48938387113348e-01 2.04288664218490e+00 2.62667637938178e-02 
5.51230405431149e-01 2.02368790199045e+00 2.62552694735619e-02 
5.53522423748950e-01 2.00437097283768e+00 2.62377715574923e-02 
5.55814442066751e-01 1.98494044503047e+00 2.62142711431243e-02 
5.58106460384552e-01 1.96540099493728e+00 2.61847733444190e-02 
5.60398478702353e-01 1.94575738190683e+00 2.61492873122237e-02 
5.62690497020154e-01 1.92601444507132e+00 2.61078262499174e-02 
5.64982515337955e-01 1.90617710004026e+00 2.60604074241838e-02 
5.67274533655756e-01 1.88625033548840e+00 2.60070521708438e-02 
5.69566551973557e-01 1.86623920964134e+00 2.59477858956935e-02 
5.71858570291358e-01 1.84614884666246e+00 2.58826380702939e-02 
5.74150588609159e-01 1.82598443294540e+00 2.58116422226731e-02 
5.76442606926960e-01 1.80575121331610e+00 2.57348359229115e-02 
5.78734625244761e-01 1.78545448714894e+00 2.56522607635932e-02 
5.81026643562562e-01 1.76509960440141e+00 2.55639623351037e-02 
5.83318661880363e-01 1.74469196157236e+00 2.54699901957753e-02 
5.85610680198164e-01 1.72423699758840e+00 2.53703978368919e-02 
5.87902698515965e-01 1.70374018962391e+00 2.52652426425686e-02 
5.90194716833766e-01 1.68320704885972e+00 2.51545858445374e-02 
5.92486735151567e-01 1.66264311618591e+00 2.50384924718729e-02 
5.94778753469368e-01 1.64205395785443e+00 2.49170312957116e-02 
5.97070771787169e-01 1.62144516108697e+00 2.47902747690221e-02 
5.99362790104971e-01 1.60082232964410e+00 2.46582989614944e-02 
6.01654808422772e-01 1.58019107936153e+00 2.45211834896302e-02 
6.03946826740573e-01 1.55955703365938e+00 2.43790114421187e-02 
6.06238845058374e-01 1.53892581903078e+00 2.42318693005996e-02 
6.08530863376175e-01 1.51830306051568e+00 2.40798468559239e-02 
6.10822881693976e-01 1.49769437716634e+00 2.39230371200245e-02 
6.13114900011777e-01 1.47710537751057e+00 2.37615362335298e-02 
6.15406918329578e-01 1.45654165501921e+00 2.35954433692514e-02 
6.17698936647379e-01 1.43600878358393e+00 2.34248606316907e-02 
6.19990954965180e-01 1.41551231301199e+00 2.32498929527231e-02 
6.22282973282981e-01 1.39505776454394e+00 2.30706479836143e-02 
6.24574991600782e-01 1.37465062640087e+00 2.28872359835403e-02 
6.26867009918583e-01 1.35429634936731e+00 2.26997697047875e-02 
6.29159028236384e-01 1.33400034241608e+00 2.25083642748154e-02 
6.31451046554185e-01 1.31376796838119e+00 2.23131370753732e-02 
6.33743064871986e-01 1.29360453968503e+00 2.21142076188645e-02 
6.36035083189787e-01 1.27351531412578e+00 2.19116974221601e-02 
6.38327101507588e-01 1.25350549073089e+00 2.17057298780712e-02 
6.40619119825389e-01 1.23358020568266e+00 2.14964301246891e-02 
6.42911138143190e-01 1.21374452832138e+00 2.12839249128095e-02 
6.45203156460991e-01 1.19400345723175e+00 2.10683424716622e-02 
6.47495174778792e-01 1.17436191641795e+00 2.08498123731661e-02 
6.49787193096593e-01 1.15482475157255e+00 2.06284653949374e-02 
6.52079211414394e-01 1.13539672644449e+00 2.04044333822789e-02 
6.54371229732195e-01 1.11608251931087e+00 2.01778491093765e-02 
6.56663248049996e-01 1.09688671955748e+00 1.99488461399377e-02 
6.58955266367797e-01 1.07781382437234e+00 1.97175586874999e-02 
6.61247284685598e-01 1.05886823555682e+00 1.94841214756412e-02 
6.63539303003399e-01 1.04005425645828e+00 1.92486695983244e-02 
6.65831321321200e-01 1.02137608902809e+00 1.90113383805986e-02 
6.68123339639002e-01 1.00283783100885e+00 1.87722632398947e-02 
6.70415357956803e-01 9.84443473253950e-01 1.85315795481343e-02 
6.72707376274604e-01 9.66196897182871e-01 1.82894224948736e-02 
6.74999394592405e-01 9.48101872374958e-01 1.80459269517068e-02 
6.77291412910206e-01 9.30162054304396e-01 1.78012273381402e-02 
6.79583431228007e-01 9.12380982218744e-01 1.75554574891526e-02 
6.81875449545808e-01 8.94762077163148e-01 1.73087505246460e-02 
6.84167467863609e-01 8.77308640152082e-01 1.70612387209881e-02 
6.86459486181410e-01 8.60023850490195e-01 1.68130533848429e-02 
6.88751504499211e-01 8.42910764243573e-01 1.65643247294829e-02 
6.91043522817012e-01 8.25972312862422e-01 1.63151817537612e-02 
6.93335541134813e-01 8.09211301955961e-01 1.60657521239225e-02 
6.95627559452614e-01 7.92630410219976e-01 1.58161620584224e-02 
6.97919577770415e-01 7.76232188517254e-01 1.55665362159181e-02 
7.00211596088216e-01 7.60019059110834e-01 1.53168986855345e-02 
7.02503614406017e-01 7.43993947134434e-01 1.50673142689643e-02 
7.04795632723818e-01 7.28159404464598e-01 1.48180223541071e-02 
7.07087651041619e-01 7.12517401081603e-01 1.45692153350232e-02 
7.09379669359420e-01 6.97069778003030e-01 1.43210069179664e-02 
7.11671687677221e-01 6.81818247325236e-01 1.40735086512360e-02 
