Energy(eV)           EEDF(eV^-(3/2))      Anisotropy(eV^-(3/2))
3.28962793259830e-01 2.87788485419869e-02 5.11187848218133e-03 
9.86888379779490e-01 2.84631069533940e-02 1.41237243446443e-02 
1.64481396629915e+00 2.80759670807832e-02 1.32640004735022e-02 
2.30273955281881e+00 2.76312402203636e-02 1.26123154492386e-02 
2.96066513933847e+00 2.71089466958364e-02 1.20140430395570e-02 
3.61859072585813e+00 2.65065767371093e-02 1.14577756146150e-02 
4.27651631237779e+00 2.58432362108168e-02 1.09396713946417e-02 
4.93444189889745e+00 2.51184572386663e-02 1.04707183628960e-02 
5.59236748541711e+00 2.43411827427272e-02 1.00444749657945e-02 
6.25029307193677e+00 2.35068371972709e-02 9.65386966480096e-03 
6.90821865845643e+00 2.26139531305537e-02 9.29173286832848e-03 
7.56614424497609e+00 2.16527433833570e-02 8.95572353630161e-03 
8.22406983149575e+00 2.06055802980989e-02 8.64599406077618e-03 
8.88199541801541e+00 1.94994287864050e-02 8.35483552580495e-03 
9.53992100453507e+00 1.83420072495829e-02 8.08185459056364e-03 
1.01978465910547e+01 1.71365670726873e-02 7.82920938331272e-03 
1.08557721775744e+01 1.59494978676851e-02 7.58933801927900e-03 
1.15136977640940e+01 1.47949668116735e-02 7.35955079604110e-03 
1.21716233506137e+01 1.36705635295501e-02 7.13359503714823e-03 
1.28295489371334e+01 1.25941262556539e-02 6.90456752977045e-03 
1.34874745236530e+01 1.15705967527302e-02 6.67204130529467e-03 
1.41454001101727e+01 1.05988859269746e-02 6.43662000339194e-03 
1.48033256966923e+01 9.67765040060499e-03 6.19782945214392e-03 
1.54612512832120e+01 8.80735159199326e-03 5.95539825317524e-03 
1.61191768697317e+01 7.99477332442245e-03 5.70738075794307e-03 
1.67771024562513e+01 7.23348797587156e-03 5.44054732705257e-03 
1.74350280427710e+01 6.52865662137226e-03 5.15909991059566e-03 
1.80929536292906e+01 5.88446055649168e-03 4.86700549768207e-03 
1.87508792158103e+01 5.30097612453539e-03 4.56825220538994e-03 
1.94088048023300e+01 4.77439418616124e-03 4.26915376823185e-03 
2.00667303888496e+01 4.30349757155042e-03 3.97126600821356e-03 
2.07246559753693e+01 3.87686222392386e-03 3.68140141601999e-03 
2.13825815618889e+01 3.48900662788971e-03 3.40124269029633e-03 
2.20405071484086e+01 3.13659608461398e-03 3.13346455975005e-03 
2.26984327349283e+01 2.81880594254805e-03 2.87878408503543e-03 
2.33563583214479e+01 2.53299148829554e-03 2.63977777474952e-03 
2.40142839079676e+01 2.27718493366363e-03 2.41574084246948e-03 
2.46722094944872e+01 2.04827547762156e-03 2.20725963430692e-03 
2.53301350810069e+01 1.84453041372493e-03 2.01249507616218e-03 
2.59880606675266e+01 1.66021894894071e-03 1.83355627944951e-03 
2.66459862540462e+01 1.49404179865319e-03 1.66838710787834e-03 
2.73039118405659e+01 1.34408739659008e-03 1.51685197865292e-03 
2.79618374270855e+01 1.20946380233597e-03 1.37773630560961e-03 
2.86197630136052e+01 1.08848029643266e-03 1.25069424442180e-03 
2.92776886001249e+01 9.80040811263630e-04 1.13437386474724e-03 
2.99356141866445e+01 8.82763991778207e-04 1.02813611727513e-03 
3.05935397731642e+01 7.95443149246790e-04 9.31133014415130e-04 
3.12514653596838e+01 7.16599263120019e-04 8.43161688859286e-04 
3.19093909462035e+01 6.45539135430721e-04 7.63201628746982e-04 
3.25673165327232e+01 5.81418695629035e-04 6.90700539521972e-04 
3.32252421192428e+01 5.23669514921900e-04 6.24913833550128e-04 
3.38831677057625e+01 4.71667779880058e-04 5.65408334732176e-04 
3.45410932922821e+01 4.24912956110653e-04 5.11546421493571e-04 
3.51990188788018e+01 3.82821100888245e-04 4.62902613658510e-04 
3.58569444653215e+01 3.44989904927572e-04 4.18878201963445e-04 
3.65148700518411e+01 3.10925817198284e-04 3.79098021632505e-04 
3.71727956383608e+01 2.80288351552308e-04 3.43070782305016e-04 
3.78307212248804e+01 2.52704114385676e-04 3.10533507101692e-04 
3.84886468114001e+01 2.27936828737691e-04 2.81123976822123e-04 
3.91465723979198e+01 2.05670015019545e-04 2.54609351429066e-04 
3.98044979844394e+01 1.85664109369491e-04 2.30663999931074e-04 
4.04624235709591e+01 1.67672991069881e-04 2.09078592566550e-04 
4.11203491574787e+01 1.51519403696132e-04 1.89599303178049e-04 
4.17782747439984e+01 1.36996163194015e-04 1.72048815765969e-04 
4.24362003305180e+01 1.23942550323308e-04 1.56207811280312e-04 
4.30941259170377e+01 1.12196258890434e-04 1.41917825335086e-04 
4.37520515035574e+01 1.01628601630183e-04 1.29004666762633e-04 
4.44099770900770e+01 9.21100629854626e-05 1.17340104362716e-04 
4.50679026765967e+01 8.35380724015127e-05 1.06785241752261e-04 
4.57258282631163e+01 7.58100685417082e-05 9.72371702452744e-05 
4.63837538496360e+01 6.88441422478556e-05 8.85855713636131e-05 
4.70416794361557e+01 6.25588684268245e-05 8.07476339600248e-05 
4.76996050226753e+01 5.68887234322603e-05 7.36353813486344e-05 
4.83575306091950e+01 5.17688627761862e-05 6.71810660495347e-05 
4.90154561957146e+01 4.71458792979092e-05 6.13140492100416e-05 
4.96733817822343e+01 4.29684189436642e-05 5.59798003470152e-05 
5.03313073687540e+01 3.91945223363298e-05 5.11145962397472e-05 
5.09892329552736e+01 3.57597463059499e-05 4.66926169405996e-05 
5.16471585417933e+01 3.26342780128811e-05 4.26626710201176e-05 
5.23050841283129e+01 2.97883440028161e-05 3.89906102117982e-05 
5.29630097148326e+01 2.71967671803481e-05 3.56414335836235e-05 
5.36209353013523e+01 2.48353787809130e-05 3.25871506805025e-05 
5.42788608878719e+01 2.26841908900107e-05 2.97995801207647e-05 
5.49367864743916e+01 2.07233885277808e-05 2.72567363535331e-05 
5.55947120609112e+01 1.89370129938945e-05 2.49363659969123e-05 
5.62526376474309e+01 1.73093295287488e-05 2.28203396875867e-05 
5.69105632339506e+01 1.58263319547182e-05 2.08897691357635e-05 
5.75684888204702e+01 1.44743157804552e-05 1.91286797907826e-05 
5.82264144069899e+01 1.32417683723287e-05 1.75209434512640e-05 
5.88843399935095e+01 1.21174608129017e-05 1.60534314679577e-05 
5.95422655800292e+01 1.10919154070917e-05 1.47129982878266e-05 
6.02001911665489e+01 1.01559087229734e-05 1.34888360590731e-05 
6.08581167530685e+01 9.30162658684440e-06 1.23700748921232e-05 
6.15160423395882e+01 8.52149122052385e-06 1.13477231123775e-05 
6.21739679261078e+01 7.80906088974467e-06 1.04128285644620e-05 
6.28318935126275e+01 7.15810342787874e-06 9.55796345272942e-06 
6.34898190991472e+01 6.56330250331400e-06 8.77575918371758e-06 
6.41477446856668e+01 6.01952580656797e-06 8.06007272382354e-06 
6.48056702721865e+01 5.52238088853099e-06 7.40482675898983e-06 
6.54635958587061e+01 5.06763611719254e-06 6.80492898496586e-06 
6.61215214452258e+01 4.65165910308757e-06 6.25536039510512e-06 
6.67794470317455e+01 4.27095671998236e-06 5.75190066605208e-06 
6.74373726182651e+01 3.92252181000323e-06 5.29040152198158e-06 
6.80952982047848e+01 3.60346727267955e-06 4.86736112535480e-06 
6.87532237913044e+01 3.31130086654220e-06 4.47934600820607e-06 
6.94111493778241e+01 3.04363347765163e-06 4.12344703721811e-06 
7.00690749643438e+01 2.79839741732016e-06 3.79677251015881e-06 
7.07270005508634e+01 2.57356695359812e-06 3.49686353065426e-06 
7.13849261373831e+01 2.36741063458279e-06 3.22132425791432e-06 
7.20428517239027e+01 2.17830621992934e-06 2.96814249813219e-06 
7.27007773104224e+01 2.00484228118549e-06 2.73538284189850e-06 
7.33587028969421e+01 1.84566883687337e-06 2.52138791849229e-06 
7.40166284834617e+01 1.69960879138354e-06 2.32454262353245e-06 
7.46745540699814e+01 1.56553774840218e-06 2.14345911182008e-06 
7.53324796565010e+01 1.44247211874698e-06 1.97671644942417e-06 
7.59904052430207e+01 1.32926757649778e-06 1.82331433716806e-06 
7.66483308295404e+01 1.22513464083310e-06 1.68206599975157e-06 
7.73062564160600e+01 1.12931733384418e-06 1.55201353995487e-06 
7.79641820025797e+01 1.04115173118746e-06 1.43222677823245e-06 
7.86221075890993e+01 9.60002869106029e-07 1.32189872658901e-06 
7.92800331756190e+01 8.85312086691727e-07 1.22024714152446e-06 
7.99379587621386e+01 8.16545709677769e-07 1.12659172289579e-06 
8.05958843486583e+01 7.53233383959045e-07 1.04027412754234e-06 
8.12538099351780e+01 6.94926278427625e-07 9.60720489740269e-07 
8.19117355216976e+01 6.41228166562426e-07 8.87376330612056e-07 
8.25696611082173e+01 5.91761335469586e-07 8.19757266839493e-07 
8.32275866947370e+01 5.46191821243223e-07 7.57395962302928e-07 
8.38855122812566e+01 5.04201565854705e-07 6.99883318862199e-07 
8.45434378677763e+01 4.65508932553354e-07 6.46825428047351e-07 
8.52013634542959e+01 4.29845906922051e-07 5.97877266988336e-07 
8.58592890408156e+01 3.96974775086694e-07 5.52706990221406e-07 
8.65172146273352e+01 3.66669486483267e-07 5.11022963923123e-07 
8.71751402138549e+01 3.38729272688665e-07 4.72544815364650e-07 
8.78330658003746e+01 3.12963366367376e-07 4.37025704232373e-07 
8.84909913868942e+01 2.89202114854963e-07 4.04228602700235e-07 
8.91489169734139e+01 2.67284434399189e-07 3.73945584134945e-07 
8.98068425599336e+01 2.47066766606782e-07 3.45978055443463e-07 
9.04647681464532e+01 2.28412801212899e-07 3.20149375066433e-07 
9.11226937329729e+01 2.11201034379361e-07 2.96289180986122e-07 
9.17806193194925e+01 1.95316277961311e-07 2.74246759113784e-07 
9.24385449060122e+01 1.80655739257076e-07 2.53877867122449e-07 
9.30964704925319e+01 1.67122025625906e-07 2.35054707380923e-07 
9.37543960790515e+01 1.54628130609200e-07 2.17655072821063e-07 
9.44123216655712e+01 1.43091663736746e-07 2.01570532632718e-07 
9.50702472520908e+01 1.32438944761864e-07 1.86697480186873e-07 
9.57281728386105e+01 1.22600238484965e-07 1.72943859798400e-07 
9.63860984251301e+01 1.13513120791028e-07 1.60221774749113e-07 
9.70440240116498e+01 1.05118538827192e-07 1.48453021528162e-07 
9.77019495981695e+01 9.73635818266643e-08 1.37562979144236e-07 
9.83598751846891e+01 9.01982198449107e-08 1.27485167315597e-07 
9.90178007712088e+01 8.35775875476408e-08 1.18156189442197e-07 
9.96757263577285e+01 7.74592814140283e-08 1.09519509643746e-07 
1.00333651944248e+02 7.18052230665304e-08 1.01523705543126e-07 
1.00991577530768e+02 6.65766780872623e-08 9.41284639131130e-08 
1.01649503117287e+02 6.17410703059550e-08 8.72888621368022e-08 
1.02307428703807e+02 5.72676690401755e-08 8.09625304322038e-08 
1.02965354290327e+02 5.31288623300136e-08 7.51092551128777e-08 
1.03623279876846e+02 4.92986083688904e-08 6.96931165654829e-08 
1.04281205463366e+02 4.57534854650347e-08 6.46800363859414e-08 
1.04939131049886e+02 4.24714082772419e-08 6.00395401733653e-08 
1.05597056636405e+02 3.94324947320431e-08 5.57427260076695e-08 
1.06254982222925e+02 3.66180005306831e-08 5.17637197880903e-08 
1.06912907809445e+02 3.40110358119809e-08 4.80779905923656e-08 
1.07570833395964e+02 3.15956797929132e-08 4.46635537263342e-08 
1.08228758982484e+02 2.93575739386778e-08 4.14995720295206e-08 
1.08886684569004e+02 2.72831854409993e-08 3.85673516320346e-08 
1.09544610155523e+02 2.53602987648460e-08 3.58491792730511e-08 
1.10202535742043e+02 2.35774022510185e-08 3.33291475154695e-08 
1.10860461328563e+02 2.19240959338492e-08 3.09921871055188e-08 
1.11518386915082e+02 2.03905801154658e-08 2.88247517008674e-08 
1.12176312501602e+02 1.89679941145387e-08 2.68140116096003e-08 
1.12834238088122e+02 1.76479893905275e-08 2.49484226445138e-08 
1.13492163674641e+02 1.64230112486761e-08 2.32170535504290e-08 
1.14150089261161e+02 1.52859421483844e-08 2.16100591661925e-08 
1.14808014847681e+02 1.42303362403757e-08 2.01181187325081e-08 
1.15465940434200e+02 1.32501209993223e-08 1.87328299308376e-08 
1.16123866020720e+02 1.23397927137448e-08 1.74462392629211e-08 
1.16781791607240e+02 1.14941666405793e-08 1.62511705871535e-08 
1.17439717193759e+02 1.07085401329511e-08 1.51408320400098e-08 
1.18097642780279e+02 9.97848320576387e-09 1.41090902804947e-08 
1.18755568366799e+02 9.29997481127313e-09 1.31501411157818e-08 
1.19413493953318e+02 8.66922709680005e-09 1.22587386920173e-08 
1.20071419539838e+02 8.08279937469862e-09 1.14299191991236e-08 
1.20729345126358e+02 7.53745050029045e-09 1.06591926299259e-08 
1.21387270712877e+02 7.03023429225590e-09 9.94231076053018e-09 
1.22045196299397e+02 6.55837540502295e-09 9.27542777442927e-09 
1.22703121885917e+02 6.11934930600284e-09 8.65490521587830e-09 
1.23361047472436e+02 5.71077779798174e-09 8.07744668660384e-09 
1.24018973058956e+02 5.33049612525009e-09 7.53993370847111e-09 
1.24676898645476e+02 4.97646494740930e-09 7.03953880700430e-09 
1.25334824231995e+02 4.64682670614929e-09 6.57358724187493e-09 
1.25992749818515e+02 4.33983138644891e-09 6.13965204867569e-09 
1.26650675405034e+02 4.05388391322392e-09 5.73543743753909e-09 
1.27308600991554e+02 3.78748147915829e-09 5.35885875879123e-09 
1.27966526578074e+02 3.53925344104524e-09 5.00794407300298e-09 
1.28624452164593e+02 3.30790836088423e-09 4.68090150258353e-09 
1.29282377751113e+02 3.09226762452384e-09 4.37603605232784e-09 
1.29940303337633e+02 2.89122064811506e-09 4.09180640128101e-09 
1.30598228924152e+02 2.70375323654231e-09 3.82675454827545e-09 
1.31256154510672e+02 2.52890965992616e-09 3.57955375149670e-09 
1.31914080097192e+02 2.36581659979008e-09 3.34894895709023e-09 
1.32572005683711e+02 2.21365101186413e-09 3.13379730752416e-09 
1.33229931270231e+02 2.07166036759243e-09 2.93301765099301e-09 
1.33887856856751e+02 1.93913539508412e-09 2.74562480321070e-09 
1.34545782443270e+02 1.81542720721728e-09 2.57068631407433e-09 
1.35203708029790e+02 1.69992419598309e-09 2.40735124372802e-09 
1.35861633616310e+02 1.59206656247092e-09 2.25481434764942e-09 
1.36519559202829e+02 1.49132663523210e-09 2.11234106638571e-09 
1.37177484789349e+02 1.39722115736783e-09 1.97923657507360e-09 
1.37835410375869e+02 1.30929454740516e-09 1.85486663107735e-09 
1.38493335962388e+02 1.22712932870614e-09 1.73863127466289e-09 
1.39151261548908e+02 1.15033187711267e-09 1.62998522555754e-09 
1.39809187135428e+02 1.07854103764135e-09 1.52841457094060e-09 
1.40467112721947e+02 1.01141606510996e-09 1.43344640337225e-09 
1.41125038308467e+02 9.48644410085800e-10 1.34463070208206e-09 
1.41782963894987e+02 8.89931352138746e-10 1.26155601094496e-09 
1.42440889481506e+02 8.35006404674103e-10 1.18383310431406e-09 
1.43098815068026e+02 7.83614467409231e-10 1.11110588933776e-09 
1.43756740654546e+02 7.35521285243556e-10 1.04303745978859e-09 
1.44414666241065e+02 6.90505890581784e-10 9.79319398332358e-10 
1.45072591827585e+02 6.48365260389047e-10 9.19659858151723e-10 
1.45730517414105e+02 6.08907854598517e-10 8.63791507784747e-10 
1.46388443000624e+02 5.71957592891675e-10 8.11461336332969e-10 
1.47046368587144e+02 5.37348325360239e-10 7.62437445511039e-10 
1.47704294173664e+02 5.04927231591810e-10 7.16500321265990e-10 
1.48362219760183e+02 4.74550084936034e-10 6.73448645826869e-10 
1.49020145346703e+02 4.46084160559604e-10 6.33091818116560e-10 
1.49678070933223e+02 4.19404175868849e-10 5.95254658916125e-10 
1.50335996519742e+02 3.94394360721455e-10 5.59747929755304e-10 
1.50993922106262e+02 3.70909318703536e-10 5.26430746397574e-10 
1.51651847692782e+02 3.48854686109320e-10 4.95141712120926e-10 
1.52309773279301e+02 3.28140936063884e-10 4.65755606448880e-10 
1.52967698865821e+02 3.08685300924293e-10 4.38153326423128e-10 
1.53625624452341e+02 2.90409257394560e-10 4.12225024649395e-10 
1.54283550038860e+02 2.73240183129081e-10 3.87866227353742e-10 
1.54941475625380e+02 2.57109181198655e-10 3.64980538244425e-10 
1.55599401211900e+02 2.41952508442373e-10 3.43476282305970e-10 
1.56257326798419e+02 2.27709692498072e-10 3.23268836899558e-10 
1.56915252384939e+02 2.14324764033717e-10 3.04277728490999e-10 
1.57573177971459e+02 2.01744626143565e-10 2.86428643533620e-10 
1.58231103557978e+02 1.89920117971972e-10 2.69650915630334e-10 
1.58889029144498e+02 1.78804601917396e-10 2.53879261175097e-10 
1.59546954731017e+02 1.68354882220775e-10 2.39051603263362e-10 
1.60204880317537e+02 1.58529980252247e-10 2.25110570613419e-10 
1.60862805904057e+02 1.49291928271487e-10 2.12001612083614e-10 
1.61520731490576e+02 1.40604707214820e-10 1.99674291886144e-10 
1.62178657077096e+02 1.32434932960262e-10 1.88080655030501e-10 
1.62836582663616e+02 1.24750934586106e-10 1.77176347138025e-10 
1.63494508250135e+02 1.17523348016083e-10 1.66919196667846e-10 
1.64152433836655e+02 1.10724315770058e-10 1.57270183620736e-10 
1.64810359423175e+02 1.04328000762917e-10 1.48192209151451e-10 
1.65468285009694e+02 9.83098911866575e-11 1.39650934013565e-10 
1.66126210596214e+02 9.26472454378443e-11 1.31613710235342e-10 
1.66784136182734e+02 8.73184880202391e-11 1.24050307217100e-10 
1.67442061769253e+02 8.23035950353933e-11 1.16931983644554e-10 
1.68099987355773e+02 7.75835689290184e-11 1.10232116633427e-10 
1.68757912942293e+02 7.31407726596114e-11 1.03925395057875e-10 
1.69415838528812e+02 6.89584727752557e-11 9.79883649817317e-11 
1.70073764115332e+02 6.50211292438438e-11 9.23987281619389e-11 
1.70731689701852e+02 6.13139977784671e-11 8.71358151593478e-11 
1.71389615288371e+02 5.78233813423409e-11 8.21799749967837e-11 
1.72047540874891e+02 5.45362838734755e-11 7.75129857570321e-11 
1.72705466461411e+02 5.14406286446363e-11 7.31175232843029e-11 
1.73363392047930e+02 4.85249565998515e-11 6.89775177178015e-11 
1.74021317634450e+02 4.57786160346693e-11 6.50776907716612e-11 
1.74679243220970e+02 4.31914996721380e-11 6.14038654907036e-11 
1.75337168807489e+02 4.07542095138683e-11 5.79425630604798e-11 
1.75995094394009e+02 3.84578275722282e-11 5.46812720598223e-11 
1.76653019980529e+02 3.62940592150261e-11 5.16080969661275e-11 
1.77310945567048e+02 3.42550331520667e-11 4.87119923224834e-11 
1.77968871153568e+02 3.23334261421044e-11 4.59824561626519e-11 
1.78626796740088e+02 3.05222884196269e-11 4.34097337592099e-11 
1.79284722326607e+02 2.88151522427792e-11 4.09845500788716e-11 
1.79942647913127e+02 2.72058794555902e-11 3.86982871745957e-11 
1.80600573499647e+02 2.56887560172047e-11 3.65427506413365e-11 
1.81258499086166e+02 2.42583588290067e-11 3.45103241519872e-11 
1.81916424672686e+02 2.29096380950032e-11 3.25937654761676e-11 
1.82574350259206e+02 2.16378009249810e-11 3.07863411663134e-11 
1.83232275845725e+02 2.04383831271152e-11 2.90816483155139e-11 
1.83890201432245e+02 1.93071474264278e-11 2.74737320252465e-11 
1.84548127018765e+02 1.82401460737161e-11 2.59569310738967e-11 
1.85206052605284e+02 1.72336316835385e-11 2.45259817365279e-11 
1.85863978191804e+02 1.62841117542591e-11 2.31758798051478e-11 
1.86521903778324e+02 1.53882707507285e-11 2.19019684380398e-11 
1.87179829364843e+02 1.45430178095808e-11 2.06998188840704e-11 
1.87837754951363e+02 1.37454185138421e-11 1.95653085641662e-11 
1.88495680537883e+02 1.29927365596773e-11 1.84945169473251e-11 
1.89153606124402e+02 1.22823739666696e-11 1.74838133947354e-11 
1.89811531710922e+02 1.16119059381952e-11 1.65297612107537e-11 
1.90469457297441e+02 1.09790288251941e-11 1.56291372939983e-11 
1.91127382883961e+02 1.03815935656092e-11 1.47788566949384e-11 
1.91785308470481e+02 9.81755971579329e-12 1.39760455553568e-11 
1.92443234057000e+02 9.28502325689025e-12 1.32179707499723e-11 
1.93101159643520e+02 8.78217627442109e-12 1.25020854141974e-11 
1.93759085230040e+02 8.30733129568825e-12 1.18259672392235e-11 
1.94417010816559e+02 7.85888590762292e-12 1.11873583267445e-11 
1.95074936403079e+02 7.43534406862108e-12 1.05841110488631e-11 
1.95732861989599e+02 7.03528504586177e-12 1.00142229531559e-11 
1.96390787576118e+02 6.65738208708961e-12 9.47578923882809e-12 
1.97048713162638e+02 6.30037513779568e-12 8.96703334105141e-12 
1.97706638749158e+02 5.96308720829332e-12 8.48626519645096e-12 
1.98364564335677e+02 5.64440039998650e-12 8.03190805380476e-12 
1.99022489922197e+02 5.34327025959234e-12 7.60246180766633e-12 
1.99680415508717e+02 5.05870470358593e-12 7.19652617489387e-12 
2.00338341095236e+02 4.78977515480174e-12 6.81274858046034e-12 
2.00996266681756e+02 4.53550553663506e-12 6.44998188484336e-12 
2.01654192268276e+02 4.29508086736666e-12 6.10702071126619e-12 
2.02312117854795e+02 4.06772640064268e-12 5.78276306250338e-12 
2.02970043441315e+02 3.85271741345135e-12 5.47616007664006e-12 
2.03627969027835e+02 3.64936491612661e-12 5.18623197056628e-12 
2.04285894614354e+02 3.45702425062451e-12 4.91204615601995e-12 
