Energy(eV)           EEDF(eV^-(3/2))      Anisotropy(eV^-(3/2))
2.01954618703998e-01 2.86258498913383e-02 4.43357336389669e-03 
6.05863856111995e-01 2.84561699138682e-02 1.41819952454311e-02 
1.00977309351999e+00 2.82725661331388e-02 1.34513354228843e-02 
1.41368233092799e+00 2.80600585601762e-02 1.30296604600547e-02 
1.81759156833598e+00 2.78210370770273e-02 1.26579882002541e-02 
2.22150080574398e+00 2.75597200387554e-02 1.22982299618328e-02 
2.62541004315198e+00 2.72718820332264e-02 1.19468439450392e-02 
3.02931928055997e+00 2.69492582648214e-02 1.16097050743255e-02 
3.43322851796797e+00 2.65986985976808e-02 1.12832421166483e-02 
3.83713775537597e+00 2.62236308865325e-02 1.09716623162622e-02 
4.24104699278396e+00 2.58267229596944e-02 1.06759873165478e-02 
4.64495623019196e+00 2.54053218282506e-02 1.03987930276462e-02 
5.04886546759996e+00 2.49647605535677e-02 1.01383858183102e-02 
5.45277470500795e+00 2.45032327365908e-02 9.89428058255744e-03 
5.85668394241595e+00 2.40196795115009e-02 9.66243181079107e-03 
6.26059317982395e+00 2.35147194562061e-02 9.44052867188262e-03 
6.66450241723194e+00 2.29872767662820e-02 9.22893948791086e-03 
7.06841165463994e+00 2.24382533113973e-02 9.02635070525940e-03 
7.47232089204793e+00 2.18596008039036e-02 8.83297989912067e-03 
7.87623012945593e+00 2.12482532357188e-02 8.64754528806179e-03 
8.28013936686393e+00 2.06074415830168e-02 8.46933190112131e-03 
8.68404860427193e+00 1.99459278654695e-02 8.29710674204690e-03 
9.08795784167992e+00 1.92645729485039e-02 8.13088905601167e-03 
9.49186707908792e+00 1.85642204135521e-02 7.97025986501949e-03 
9.89577631649591e+00 1.78456695514067e-02 7.81541393920925e-03 
1.02996855539039e+01 1.71168681771059e-02 7.66650769147058e-03 
1.07035947913119e+01 1.64003721992314e-02 7.52142680513562e-03 
1.11075040287199e+01 1.56957619649240e-02 7.38064313917476e-03 
1.15114132661279e+01 1.50027344778157e-02 7.24221572013596e-03 
1.19153225035359e+01 1.43206840653771e-02 7.10365097003579e-03 
1.23192317409439e+01 1.36517167147842e-02 6.96331770026682e-03 
1.27231409783519e+01 1.30017113726862e-02 6.82054868139260e-03 
1.31270502157599e+01 1.23704941454135e-02 6.67592534129531e-03 
1.35309594531679e+01 1.17579083252292e-02 6.52957134006400e-03 
1.39348686905759e+01 1.11638579368496e-02 6.38141071895210e-03 
1.43387779279839e+01 1.05880583035988e-02 6.23143216548215e-03 
1.47426871653919e+01 1.00304473580704e-02 6.07962825595831e-03 
1.51465964027999e+01 9.49061156526929e-03 5.92582768228270e-03 
1.55505056402079e+01 8.97000170835856e-03 5.76971633106704e-03 
1.59544148776159e+01 8.46877106223377e-03 5.61133299487571e-03 
1.63583241150239e+01 7.98517015574882e-03 5.44435588281663e-03 
1.67622333524319e+01 7.51992649292543e-03 5.26984763329670e-03 
1.71661425898399e+01 7.07322877711560e-03 5.09000397139861e-03 
1.75700518272478e+01 6.64753104874843e-03 4.90519580643408e-03 
1.79739610646558e+01 6.24240911942098e-03 4.71633321768577e-03 
1.83778703020638e+01 5.85821574820271e-03 4.52449461483471e-03 
1.87817795394718e+01 5.49423775355623e-03 4.33131999414979e-03 
1.91856887768798e+01 5.15078640973263e-03 4.13785243935435e-03 
1.95895980142878e+01 4.82696152075815e-03 3.94552187229249e-03 
1.99935072516958e+01 4.52267853374817e-03 3.75468558990683e-03 
2.03974164891038e+01 4.23539959552003e-03 3.56701915412408e-03 
2.08013257265118e+01 3.96336079407067e-03 3.38339251862465e-03 
2.12052349639198e+01 3.70582920644079e-03 3.20440383042615e-03 
2.16091442013278e+01 3.46270701346144e-03 3.03010373123051e-03 
2.20130534387358e+01 3.23325784549148e-03 2.86115822981356e-03 
2.24169626761438e+01 3.01738813873716e-03 2.69796582590664e-03 
2.28208719135518e+01 2.81465071907594e-03 2.54142511332756e-03 
2.32247811509598e+01 2.62464632318829e-03 2.39156128430634e-03 
2.36286903883678e+01 2.44655076358841e-03 2.24849494823312e-03 
2.40325996257758e+01 2.27996540897468e-03 2.11188423844755e-03 
2.44365088631838e+01 2.12415399777645e-03 1.98181671343488e-03 
2.48404181005918e+01 1.97870577047601e-03 1.85802888335817e-03 
2.52443273379998e+01 1.84293738880252e-03 1.74058310336952e-03 
2.56482365754078e+01 1.71588084260194e-03 1.62953487192238e-03 
2.60521458128158e+01 1.59693649266430e-03 1.52470130901570e-03 
2.64560550502238e+01 1.48575766015423e-03 1.42566623431171e-03 
2.68599642876318e+01 1.38180831067667e-03 1.33229862452262e-03 
2.72638735250398e+01 1.28477871097848e-03 1.24431860361184e-03 
2.76677827624478e+01 1.19425729589561e-03 1.16165538997701e-03 
2.80716919998558e+01 1.10991155945476e-03 1.08400533107964e-03 
2.84756012372638e+01 1.03128797778879e-03 1.01116873119306e-03 
2.88795104746718e+01 9.58087032270940e-04 9.42794421735923e-04 
2.92834197120797e+01 8.89910731125832e-04 8.78694898435621e-04 
2.96873289494877e+01 8.26490292873040e-04 8.18558444020569e-04 
3.00912381868957e+01 7.67476885085630e-04 7.62249411055753e-04 
3.04951474243037e+01 7.12611528577640e-04 7.09584795355392e-04 
3.08990566617117e+01 6.61573102173783e-04 6.60450644975068e-04 
3.13029658991197e+01 6.14136075689055e-04 6.14584901581573e-04 
3.17068751365277e+01 5.70024776914580e-04 5.71814561044797e-04 
3.21107843739357e+01 5.29040877546518e-04 5.31899879600473e-04 
3.25146936113437e+01 4.90945723011329e-04 4.94689413722607e-04 
3.29186028487517e+01 4.55567375271796e-04 4.59985790484140e-04 
3.33225120861597e+01 4.22706179179138e-04 4.27675489273258e-04 
3.37264213235677e+01 3.92218667241600e-04 3.97593030818347e-04 
3.41303305609757e+01 3.63918115226931e-04 3.69620742219389e-04 
3.45342397983837e+01 3.37663858064273e-04 3.43590552595991e-04 
3.49381490357917e+01 3.13295622321160e-04 3.19389856341400e-04 
3.53420582731997e+01 2.90695251360625e-04 2.96877476369892e-04 
3.57459675106077e+01 2.69723859950494e-04 2.75949768680937e-04 
3.61498767480157e+01 2.50270596646406e-04 2.56476870644544e-04 
3.65537859854237e+01 2.32217790426664e-04 2.38365742093173e-04 
3.69576952228317e+01 2.15474261921529e-04 2.21509865230205e-04 
3.73616044602397e+01 1.99938923727457e-04 2.05834333608880e-04 
3.77655136976477e+01 1.85534397986861e-04 1.91258015492899e-04 
3.81694229350557e+01 1.72181477988534e-04 1.77721869066564e-04 
3.85733321724637e+01 1.59808146687901e-04 1.65151095445444e-04 
3.89772414098717e+01 1.48336853888071e-04 1.53482520048146e-04 
3.93811506472797e+01 1.37705773418438e-04 1.42643624433982e-04 
3.97850598846877e+01 1.27848792119165e-04 1.32579884290783e-04 
4.01889691220956e+01 1.18712833329265e-04 1.23234587061742e-04 
4.05928783595037e+01 1.10246086939393e-04 1.14564806023272e-04 
4.09967875969116e+01 1.02401446265336e-04 1.06520923071337e-04 
4.14006968343196e+01 9.51293188865825e-05 9.90605796198272e-05 
4.18046060717276e+01 8.83892868919184e-05 9.21366301218189e-05 
4.22085153091356e+01 8.21392250575176e-05 8.57128106449980e-05 
4.26124245465436e+01 7.63448862668309e-05 7.97492493798652e-05 
4.30163337839516e+01 7.09703528212850e-05 7.42148038390031e-05 
4.34202430213596e+01 6.59860246102423e-05 6.90752436463404e-05 
4.38241522587676e+01 6.13613536912766e-05 6.43036055113620e-05 
4.42280614961756e+01 5.70710374291045e-05 5.98707759827886e-05 
4.46319707335836e+01 5.30890713837675e-05 5.57536548534303e-05 
4.50358799709916e+01 4.93938133508565e-05 5.19274531844316e-05 
4.54397892083996e+01 4.59631073577811e-05 4.83723636750697e-05 
4.58436984458076e+01 4.27784315390862e-05 4.50672548623952e-05 
4.62476076832156e+01 3.98208932841622e-05 4.19951319188610e-05 
4.66515169206236e+01 3.70746323468198e-05 3.91379627876896e-05 
4.70554261580316e+01 3.45235260200413e-05 3.64811564043754e-05 
4.74593353954396e+01 3.21539858061213e-05 3.40093100874550e-05 
4.78632446328476e+01 2.99522422929881e-05 3.17098576578867e-05 
4.82671538702556e+01 2.79066195682902e-05 2.95694591401030e-05 
4.86710631076636e+01 2.60052248234199e-05 2.75772122832953e-05 
4.90749723450716e+01 2.42381208665225e-05 2.57217659707562e-05 
4.94788815824796e+01 2.25952880520674e-05 2.39939173385321e-05 
4.98827908198876e+01 2.10681928792710e-05 2.23839186563747e-05 
5.02867000572956e+01 1.96476919756761e-05 2.08836408779459e-05 
5.06906092947036e+01 1.83245512878822e-05 1.94859027681316e-05 
5.10945185321116e+01 1.70917356831687e-05 1.81834285130200e-05 
5.14984277695196e+01 1.59432212693126e-05 1.69692846710706e-05 
5.19023370069276e+01 1.48729392812763e-05 1.58376494626361e-05 
5.23062462443355e+01 1.38756502681374e-05 1.47824413692121e-05 
5.27101554817435e+01 1.29460529661183e-05 1.37985680306429e-05 
5.31140647191515e+01 1.20796674355262e-05 1.28808300170678e-05 
5.35179739565595e+01 1.12719986114331e-05 1.20249212987393e-05 
5.39218831939675e+01 1.05191637626514e-05 1.12264211825296e-05 
5.43257924313755e+01 9.81727654373967e-06 1.04815919306731e-05 
5.47297016687835e+01 9.16297114574950e-06 9.78660951855124e-06 
5.51336109061915e+01 8.55288639138781e-06 9.13838226415291e-06 
5.55375201435995e+01 7.98424317173902e-06 8.53373632178707e-06 
5.59414293810075e+01 7.45411490237188e-06 7.96997205736634e-06 
5.63453386184155e+01 6.95992300882063e-06 7.44418142551806e-06 
5.67492478558235e+01 6.49911039421302e-06 6.95385513303895e-06 
5.71531570932315e+01 6.06944654970289e-06 6.49645647687202e-06 
5.75570663306395e+01 5.66872358558965e-06 6.06981320225421e-06 
5.79609755680475e+01 5.29501131546362e-06 5.67173498464695e-06 
5.83648848054555e+01 4.94640243019201e-06 5.30034055628497e-06 
5.87687940428635e+01 4.62122597803248e-06 4.95374139395943e-06 
5.91727032802715e+01 4.31783303705122e-06 4.63031590074489e-06 
5.95766125176795e+01 4.03477546187744e-06 4.32843324719707e-06 
5.99805217550875e+01 3.77062678115456e-06 4.04667984450981e-06 
6.03844309924955e+01 3.52413235651562e-06 3.78363888652469e-06 
6.07883402299035e+01 3.29405830221016e-06 3.53808356704722e-06 
6.11922494673115e+01 3.07931734968017e-06 3.30878824510702e-06 
6.15961587047195e+01 2.87884168620485e-06 3.09468903884560e-06 
6.20000679421275e+01 2.69168870632529e-06 2.89472512437168e-06 
6.24039771795355e+01 2.51693388099660e-06 2.70797352592415e-06 
6.28078864169435e+01 2.35375969277289e-06 2.53351560182776e-06 
6.32117956543515e+01 2.20136529627957e-06 2.37055029196480e-06 
6.36157048917594e+01 2.05904137956493e-06 2.21828167971324e-06 
6.40196141291675e+01 1.92609391462886e-06 2.07601418667325e-06 
6.44235233665754e+01 1.80190723448453e-06 1.94305769846092e-06 
6.48274326039834e+01 1.68587962986565e-06 1.81880780923071e-06 
6.52313418413914e+01 1.57747653133703e-06 1.70266595034588e-06 
6.56352510787994e+01 1.47617604314616e-06 1.59410694651503e-06 
6.60391603162074e+01 1.38151382783211e-06 1.49261146114633e-06 
6.64430695536154e+01 1.29303701445781e-06 1.39772297584402e-06 
6.68469787910234e+01 1.21034211232267e-06 1.30899068041379e-06 
6.72508880284314e+01 1.13303597313930e-06 1.22601757594054e-06 
6.76547972658394e+01 1.06076784304490e-06 1.14841215030443e-06 
6.80587065032474e+01 9.93196271870720e-07 1.07582902440506e-06 
6.84626157406554e+01 9.30016231767249e-07 1.00792802486585e-06 
6.88665249780634e+01 8.70931044849640e-07 9.44408559895070e-07 
6.92704342154714e+01 8.15675346107204e-07 8.84974926243383e-07 
6.96743434528794e+01 7.63991249431841e-07 8.29365407411939e-07 
7.00782526902874e+01 7.15647806891458e-07 7.77318432309669e-07 
7.04821619276954e+01 6.70416682245829e-07 7.28601184163546e-07 
7.08860711651034e+01 6.28096344955953e-07 6.82985802286926e-07 
7.12899804025114e+01 5.88493265307047e-07 6.40274078709779e-07 
7.16938896399194e+01 5.51433682931155e-07 6.00273335191166e-07 
7.20977988773274e+01 5.16748973040330e-07 5.62812210443744e-07 
7.25017081147354e+01 4.84287570763792e-07 5.27722649923644e-07 
7.29056173521434e+01 4.53902505184189e-07 4.94854974287730e-07 
7.33095265895514e+01 4.25461536031802e-07 4.64062547044198e-07 
7.37134358269594e+01 3.98836526858487e-07 4.35214580912583e-07 
7.41173450643674e+01 3.73912068197253e-07 4.08183075924177e-07 
7.45212543017754e+01 3.50576412128360e-07 3.82853710722126e-07 
7.49251635391833e+01 3.28728813123989e-07 3.59113370928432e-07 
7.53290727765913e+01 3.08266902077742e-07 3.36862339074974e-07 
7.57329820139993e+01 2.89093318308672e-07 3.16007894270119e-07 
7.61368912514073e+01 2.71124708650321e-07 2.96460435907650e-07 
7.65408004888153e+01 2.54285742904158e-07 2.78135435134616e-07 
7.69447097262233e+01 2.38503474470874e-07 2.60957057922304e-07 
7.73486189636313e+01 2.23711918468536e-07 2.44851303489874e-07 
7.77525282010393e+01 2.09847220877983e-07 2.29751706816926e-07 
7.81564374384473e+01 1.96851571152265e-07 2.15593467428407e-07 
7.85603466758553e+01 1.84669061769691e-07 2.02318319209932e-07 
7.89642559132633e+01 1.73249033792456e-07 1.89869503793768e-07 
7.93681651506713e+01 1.62542526302719e-07 1.78195931675561e-07 
7.97720743880793e+01 1.52505138525052e-07 1.67247876249397e-07 
8.01759836254873e+01 1.43093983543407e-07 1.56980531261272e-07 
8.05798928628953e+01 1.34270138054637e-07 1.47350320108592e-07 
8.09838021003033e+01 1.25996027427004e-07 1.38317938842574e-07 
8.13877113377113e+01 1.18237523517318e-07 1.29845191092057e-07 
8.17916205751193e+01 1.10961698882048e-07 1.21897592386499e-07 
8.21955298125273e+01 1.04138624077089e-07 1.14441654389552e-07 
8.25994390499353e+01 9.77394379672240e-08 1.07447114938669e-07 
8.30033482873433e+01 9.17378882833466e-08 1.00884606576642e-07 
8.34072575247513e+01 8.61086727428620e-08 9.47275670694042e-08 
8.38111667621593e+01 8.08287601523768e-08 8.89502368175130e-08 
8.42150759995673e+01 7.58759636595328e-08 8.35292987174361e-08 
8.46189852369753e+01 7.12300739205420e-08 7.84421619346483e-08 
8.50228944743833e+01 6.68716308854034e-08 7.36683657560341e-08 
8.54268037117913e+01 6.27828964517982e-08 6.91880939058848e-08 
8.58307129491993e+01 5.89467977536790e-08 6.49833765790041e-08 
8.62346221866073e+01 5.53477626903284e-08 6.10368178394861e-08 
8.66385314240153e+01 5.19708098169880e-08 5.73326301319796e-08 
8.70424406614232e+01 4.88022661288491e-08 5.38555390151974e-08 
8.74463498988312e+01 4.58289828639971e-08 5.05916715687825e-08 
8.78502591362392e+01 4.30389524050562e-08 4.75276133047315e-08 
8.82541683736472e+01 4.04206322754082e-08 4.46511714538086e-08 
8.86580776110552e+01 3.79634755671193e-08 4.19505789795134e-08 
8.90619868484632e+01 3.56573460804717e-08 3.94151693900031e-08 
8.94658960858712e+01 3.34929724818660e-08 3.70346394340341e-08 
8.98698053232792e+01 3.14614476642663e-08 3.47995725355731e-08 
9.02737145606872e+01 2.95546238951545e-08 3.27008565007077e-08 
9.06776237980952e+01 2.77646785574537e-08 3.07301916402182e-08 
9.10815330355032e+01 2.60844521096822e-08 2.88795698422865e-08 
9.14854422729112e+01 2.45070730940692e-08 2.71416922218117e-08 
9.18893515103192e+01 2.30262492209040e-08 2.55095195509446e-08 
9.22932607477272e+01 2.16359434184672e-08 2.39766318846760e-08 
9.26971699851352e+01 2.03306246485761e-08 2.25368404037205e-08 
9.31010792225432e+01 1.91049879336983e-08 2.11844972110343e-08 
9.35049884599512e+01 1.79541705647422e-08 1.99141600526927e-08 
9.39088976973592e+01 1.68735100348167e-08 1.87208593028279e-08 
9.43128069347672e+01 1.58587304920218e-08 1.75998082354052e-08 
9.47167161721752e+01 1.49057333611139e-08 1.65466332099029e-08 
9.51206254095832e+01 1.40107582030528e-08 1.55571232002968e-08 
9.55245346469912e+01 1.31702015360497e-08 1.46274283350547e-08 
9.59284438843992e+01 1.23807556726272e-08 1.37538432746914e-08 
9.63323531218072e+01 1.16392518778222e-08 1.29329785256156e-08 
9.67362623592152e+01 1.09427802488053e-08 1.21615730160061e-08 
9.71401715966232e+01 1.02885538854247e-08 1.14366419753052e-08 
9.75440808340311e+01 9.67401244451196e-09 1.07553147083543e-08 
9.79479900714392e+01 9.09670445931227e-09 1.01149622952076e-08 
9.83518993088472e+01 8.55437682982678e-09 9.51305712117046e-09 
9.87558085462551e+01 8.04487282392452e-09 8.94728319180983e-09 
9.91597177836631e+01 7.56620944738330e-09 8.41541445515188e-09 
9.95636270210711e+01 7.11648899995633e-09 7.91541013296228e-09 
9.99675362584791e+01 6.69396599645373e-09 7.44537024153087e-09 
1.00371445495887e+02 6.29700677282439e-09 7.00363838734152e-09 
1.00775354733295e+02 5.92410744855822e-09 6.58860744103073e-09 
1.01179263970703e+02 5.57376662135754e-09 6.19872117356796e-09 
1.01583173208111e+02 5.24460362109573e-09 5.83240824621975e-09 
1.01987082445519e+02 4.93530049141188e-09 5.48822868678131e-09 
1.02390991682927e+02 4.64464469402315e-09 5.16480318962353e-09 
1.02794900920335e+02 4.37147890799804e-09 4.86086708793038e-09 
1.03198810157743e+02 4.11473789642550e-09 4.57520921922133e-09 
1.03602719395151e+02 3.87340504793944e-09 4.30671850488494e-09 
1.04006628632559e+02 3.64654422028880e-09 4.05433105913767e-09 
1.04410537869967e+02 3.43326209965181e-09 3.81707041007235e-09 
1.04814447107375e+02 3.23273571970754e-09 3.59400171658032e-09 
1.05218356344783e+02 3.04417984362619e-09 3.38426651744654e-09 
1.05622265582191e+02 2.86687075812681e-09 3.18704308045510e-09 
1.06026174819599e+02 2.70011799391696e-09 3.00157643989357e-09 
1.06430084057007e+02 2.54328490944372e-09 2.82714403883199e-09 
1.06833993294415e+02 2.39576416066891e-09 2.66308170754965e-09 
1.07237902531823e+02 2.25699551666726e-09 2.50875387718183e-09 
1.07641811769231e+02 2.12644457125041e-09 2.36357605933913e-09 
1.08045721006639e+02 2.00361817044064e-09 2.22698900981134e-09 
1.08449630244047e+02 1.88804592854769e-09 2.09847819071050e-09 
1.08853539481455e+02 1.77929359432128e-09 1.97755134913638e-09 
1.09257448718863e+02 1.67694699430181e-09 1.86375537558224e-09 
1.09661357956271e+02 1.58062361883060e-09 1.75665683647264e-09 
1.10065267193679e+02 1.48995866725702e-09 1.65585658466255e-09 
1.10469176431087e+02 1.40461509585549e-09 1.56097284831905e-09 
1.10873085668495e+02 1.32427148398814e-09 1.47165389970467e-09 
1.11276994905903e+02 1.24863075240011e-09 1.38756335749393e-09 
1.11680904143311e+02 1.17740960774242e-09 1.30839117745736e-09 
1.12084813380719e+02 1.11034611088885e-09 1.23384087226482e-09 
1.12488722618127e+02 1.04719049020169e-09 1.16363905115126e-09 
1.12892631855535e+02 9.87711714750201e-10 1.09752430165742e-09 
1.13296541092943e+02 9.31689495107607e-10 1.03525547398895e-09 
1.13700450330351e+02 8.78919995068452e-10 9.76602003915815e-10 
1.14104359567759e+02 8.29208863245301e-10 9.21351110588396e-10 
1.14508268805167e+02 7.82376198581505e-10 8.69299369760110e-10 
1.14912178042575e+02 7.38250477123246e-10 8.20258970661336e-10 
1.15316087279983e+02 6.96672870879943e-10 7.74050374509135e-10 
1.15719996517391e+02 6.57491952355441e-10 7.30507756120730e-10 
1.16123905754799e+02 6.20567452756157e-10 6.89472604914361e-10 
1.16527814992207e+02 5.85765642580367e-10 6.50798459805049e-10 
1.16931724229615e+02 5.52962603503323e-10 6.14345329082572e-10 
1.17335633467023e+02 5.22040196893585e-10 5.79983812378003e-10 
1.17739542704431e+02 4.92888913648565e-10 5.47590232357457e-10 
1.18143451941839e+02 4.65404354230241e-10 5.17050224839749e-10 
1.18547361179247e+02 4.39489712056073e-10 4.88254489535459e-10 
1.18951270416655e+02 4.15052698779398e-10 4.61101918444728e-10 
1.19355179654063e+02 3.92007709364406e-10 4.35495885215317e-10 
1.19759088891471e+02 3.70273135098989e-10 4.11346972507117e-10 
1.20162998128879e+02 3.49773252031382e-10 3.88569730211127e-10 
1.20566907366287e+02 3.30435871784174e-10 3.67085054322898e-10 
1.20970816603695e+02 3.12193989460914e-10 3.46817353489256e-10 
1.21374725841103e+02 2.94983728891761e-10 3.27696624903608e-10 
1.21778635078511e+02 2.78745781308015e-10 3.09655976626842e-10 
1.22182544315919e+02 2.63423607332170e-10 2.92633439947484e-10 
1.22586453553327e+02 2.48964693561586e-10 2.76569801829462e-10 
1.22990362790735e+02 2.35318978538687e-10 2.61410187936232e-10 
1.23394272028143e+02 2.22439950791295e-10 2.47102165539596e-10 
1.23798181265551e+02 2.10283270285689e-10 2.33597126879034e-10 
1.24202090502959e+02 1.98807728362294e-10 2.20848628048700e-10 
1.24605999740367e+02 1.87974039874264e-10 2.08813598435959e-10 
1.25009908977775e+02 1.77745682767699e-10 1.97450885583479e-10 
1.25413818215183e+02 1.68087839319366e-10 1.86722313059528e-10 
