Energy(eV)           EEDF(eV^-(3/2))      Anisotropy(eV^-(3/2))
4.23834416507916e-02 4.50503862588342e-02 1.88079270439241e-03 
1.27150324952375e-01 4.50070282645498e-02 8.06782800271235e-03 
2.11917208253958e-01 4.49952195206860e-02 7.94975572392967e-03 
2.96684091555541e-01 4.49871108109519e-02 7.84422680068141e-03 
3.81450974857124e-01 4.49747180452798e-02 7.77465390641635e-03 
4.66217858158707e-01 4.49565102603608e-02 7.71828443202774e-03 
5.50984741460290e-01 4.49326147056556e-02 7.66541609472062e-03 
6.35751624761873e-01 4.49031967604824e-02 7.61445829845819e-03 
7.20518508063457e-01 4.48682850613033e-02 7.56524466120051e-03 
8.05285391365040e-01 4.48279584109740e-02 7.51738030027032e-03 
8.90052274666623e-01 4.47822753931569e-02 7.47050551156041e-03 
9.74819157968206e-01 4.47312846459144e-02 7.42448762662460e-03 
1.05958604126979e+00 4.46752582788803e-02 7.37929315387150e-03 
1.14435292457137e+00 4.46151083573664e-02 7.33459307010295e-03 
1.22911980787296e+00 4.45508753034601e-02 7.29053447328099e-03 
1.31388669117454e+00 4.44820582845756e-02 7.24773734440892e-03 
1.39865357447612e+00 4.44090198838702e-02 7.20650274846273e-03 
1.48342045777770e+00 4.43320035616091e-02 7.16680239409839e-03 
1.56818734107929e+00 4.42514232901749e-02 7.12831177524246e-03 
1.65295422438087e+00 4.41681792240414e-02 7.09061681644275e-03 
1.73772110768245e+00 4.40822916863745e-02 7.05363872336211e-03 
1.82248799098404e+00 4.39937824621856e-02 7.01723220013890e-03 
1.90725487428562e+00 4.39026744908514e-02 6.98120682855541e-03 
1.99202175758720e+00 4.38080925486223e-02 6.94560249730910e-03 
2.07678864088879e+00 4.37094373059382e-02 6.91040165777234e-03 
2.16155552419037e+00 4.36070931347702e-02 6.87550570014382e-03 
2.24632240749195e+00 4.35022209898934e-02 6.84074775403759e-03 
2.33108929079354e+00 4.33938877407063e-02 6.80671677755778e-03 
2.41585617409512e+00 4.32821181619704e-02 6.77364486442808e-03 
2.50062305739670e+00 4.31669325606442e-02 6.74151037539366e-03 
2.58538994069829e+00 4.30478506714207e-02 6.71020921841540e-03 
2.67015682399987e+00 4.29244146217042e-02 6.67963647253555e-03 
2.75492370730145e+00 4.27966566519714e-02 6.64964306826311e-03 
2.83969059060303e+00 4.26646097734614e-02 6.62015171253284e-03 
2.92445747390462e+00 4.25287779671923e-02 6.59102337529391e-03 
3.00922435720620e+00 4.23892071766984e-02 6.56222216103270e-03 
3.09399124050778e+00 4.22462218760747e-02 6.53365649142274e-03 
3.17875812380937e+00 4.21000394090200e-02 6.50526272190323e-03 
3.26352500711095e+00 4.19506890614888e-02 6.47722048100558e-03 
3.34829189041253e+00 4.17981906607828e-02 6.45003952432344e-03 
3.43305877371412e+00 4.16425479836519e-02 6.42408578106325e-03 
3.51782565701570e+00 4.14837599908199e-02 6.39931778513361e-03 
3.60259254031728e+00 4.13218282876485e-02 6.37555600790565e-03 
3.68735942361887e+00 4.11568812188950e-02 6.35263007188400e-03 
3.77212630692045e+00 4.09890340655956e-02 6.33039166555879e-03 
3.85689319022203e+00 4.08182944206699e-02 6.30871323929778e-03 
3.94166007352361e+00 4.06446723487724e-02 6.28747471737031e-03 
4.02642695682520e+00 4.04681803249252e-02 6.26656196361739e-03 
4.11119384012678e+00 4.02884970648589e-02 6.24589531882414e-03 
4.19596072342836e+00 4.01055641897508e-02 6.22537591379092e-03 
4.28072760672995e+00 3.99194037233500e-02 6.20492061486248e-03 
4.36549449003153e+00 3.97300398174571e-02 6.18445831266044e-03 
4.45026137333311e+00 3.95374986791514e-02 6.16401092833803e-03 
4.53502825663470e+00 3.93418031325661e-02 6.14379382208501e-03 
4.61979513993628e+00 3.91434602666937e-02 6.12398544448623e-03 
4.70456202323786e+00 3.89425224692266e-02 6.10459263006609e-03 
4.78932890653945e+00 3.87389982703857e-02 6.08550254795381e-03 
4.87409578984103e+00 3.85328993496953e-02 6.06661188484492e-03 
4.95886267314261e+00 3.83242403610050e-02 6.04782769877051e-03 
5.04362955644420e+00 3.81130309830412e-02 6.02901703832366e-03 
5.12839643974578e+00 3.78987711802590e-02 6.00995967674926e-03 
5.21316332304736e+00 3.76814993182280e-02 5.99038797366426e-03 
5.29793020634895e+00 3.74612612830097e-02 5.97020892145917e-03 
5.38269708965053e+00 3.72381042640033e-02 5.94941942915417e-03 
5.46746397295211e+00 3.70120766402753e-02 5.92801876369324e-03 
5.55223085625369e+00 3.67832279279578e-02 5.90600833740672e-03 
5.63699773955528e+00 3.65516086686570e-02 5.88339211665043e-03 
5.72176462285686e+00 3.63172703313017e-02 5.86017719091387e-03 
5.80653150615844e+00 3.60802651390680e-02 5.83637310340250e-03 
5.89129838946003e+00 3.58406460066729e-02 5.81199103642388e-03 
5.97606527276161e+00 3.55984664197295e-02 5.78704320898081e-03 
6.06083215606319e+00 3.53537248826195e-02 5.76155634159076e-03 
6.14559903936478e+00 3.51062766994372e-02 5.73558334013029e-03 
6.23036592266636e+00 3.48561762816528e-02 5.70915517459282e-03 
6.31513280596794e+00 3.46034777568670e-02 5.68229041642992e-03 
6.39989968926953e+00 3.43482356888763e-02 5.65499996936568e-03 
6.48466657257111e+00 3.40905049547048e-02 5.62729603262596e-03 
6.56943345587269e+00 3.38303406904288e-02 5.59919186986523e-03 
6.65420033917427e+00 3.35677981812350e-02 5.57070166088027e-03 
6.73896722247586e+00 3.33029328142650e-02 5.54184037609442e-03 
6.82373410577744e+00 3.30357999746810e-02 5.51262371928086e-03 
6.90850098907902e+00 3.27664549988709e-02 5.48306803543787e-03 
6.99326787238061e+00 3.24949530747655e-02 5.45318592248088e-03 
7.07803475568219e+00 3.22207429181522e-02 5.42300618985788e-03 
7.16280163898377e+00 3.19430569530292e-02 5.39252867386240e-03 
7.24756852228536e+00 3.16619693466228e-02 5.36171255470270e-03 
7.33233540558694e+00 3.13775543317732e-02 5.33057956685865e-03 
7.41710228888852e+00 3.10898856281557e-02 5.29915610578313e-03 
7.50186917219011e+00 3.07990363511612e-02 5.26746796549114e-03 
7.58663605549169e+00 3.05050789742388e-02 5.23554031855012e-03 
7.67140293879327e+00 3.02080852456023e-02 5.20339771475603e-03 
7.75616982209486e+00 2.99081261564786e-02 5.17106406464227e-03 
7.84093670539644e+00 2.96052718655024e-02 5.13856264177075e-03 
7.92570358869802e+00 2.92995916726109e-02 5.10591606964541e-03 
8.01047047199961e+00 2.89911539509099e-02 5.07314896686328e-03 
8.09523735530119e+00 2.86806533881503e-02 5.04025102192264e-03 
8.18000423860277e+00 2.83685245753344e-02 5.00725374299829e-03 
8.26477112190435e+00 2.80548198558688e-02 4.97419546762626e-03 
8.34953800520594e+00 2.77395904772457e-02 4.94109541047154e-03 
8.43430488850752e+00 2.74228865948993e-02 4.90797057312886e-03 
8.51907177180910e+00 2.71047574427388e-02 4.87483126063923e-03 
8.60383865511069e+00 2.67852519395433e-02 4.84168503803140e-03 
8.68860553841227e+00 2.64644183849074e-02 4.80854503980342e-03 
8.77337242171385e+00 2.61423039745038e-02 4.77542755741582e-03 
8.85813930501544e+00 2.58189547816238e-02 4.74234820394343e-03 
8.94290618831702e+00 2.54944157734658e-02 4.70932192200810e-03 
9.02767307161860e+00 2.51687307965148e-02 4.67636300703381e-03 
9.11243995492019e+00 2.48419425944624e-02 4.64348511543073e-03 
9.19720683822177e+00 2.45140927971406e-02 4.61070128824785e-03 
9.28197372152335e+00 2.41852219397200e-02 4.57802397067691e-03 
9.36674060482494e+00 2.38553694533135e-02 4.54546504191345e-03 
9.45150748812652e+00 2.35245736841686e-02 4.51303581136182e-03 
9.53627437142810e+00 2.31928718889451e-02 4.48074702995539e-03 
9.62104125472968e+00 2.28603002563739e-02 4.44860889986992e-03 
9.70580813803127e+00 2.25268939051428e-02 4.41663109591934e-03 
9.79057502133285e+00 2.21926869063128e-02 4.38482277539928e-03 
9.87534190463443e+00 2.18577122835377e-02 4.35319259876807e-03 
9.96010878793602e+00 2.15220020360587e-02 4.32174869693433e-03 
1.00448756712376e+01 2.11856739805165e-02 4.29049344918866e-03 
1.01296425545392e+01 2.08516028847158e-02 4.25930739431400e-03 
1.02144094378408e+01 2.05197751601742e-02 4.22833287323934e-03 
1.02991763211423e+01 2.01901767240188e-02 4.19757572502252e-03 
1.03839432044439e+01 1.98627930199417e-02 4.16704140323841e-03 
1.04687100877455e+01 1.95376090555134e-02 4.13673498406776e-03 
1.05534769710471e+01 1.92146094220404e-02 4.10666118411319e-03 
1.06382438543487e+01 1.88937783292525e-02 4.07682438085395e-03 
1.07230107376503e+01 1.85750996221108e-02 4.04722805221436e-03 
1.08077776209518e+01 1.82585569036048e-02 4.01787014457496e-03 
1.08925445042534e+01 1.79441342793628e-02 3.98874509816158e-03 
1.09773113875550e+01 1.76318161646275e-02 3.95985338228685e-03 
1.10620782708566e+01 1.73215865313207e-02 3.93119996717365e-03 
1.11468451541582e+01 1.70134289527679e-02 3.90278932713235e-03 
1.12316120374598e+01 1.67073266352437e-02 3.87462547196356e-03 
1.13163789207613e+01 1.64032624579686e-02 3.84671196976946e-03 
1.14011458040629e+01 1.61012190012649e-02 3.81905197527540e-03 
1.14859126873645e+01 1.58011785822831e-02 3.79154610119659e-03 
1.15706795706661e+01 1.55031068420785e-02 3.76380188881768e-03 
1.16554464539677e+01 1.52069842268037e-02 3.73535360781887e-03 
1.17402133372693e+01 1.49128842688879e-02 3.70605151276602e-03 
1.18249802205708e+01 1.46208763535563e-02 3.67594970113069e-03 
1.19097471038724e+01 1.43310258073829e-02 3.64510092795054e-03 
1.19945139871740e+01 1.40433939923319e-02 3.61355851356099e-03 
1.20792808704756e+01 1.37583617184219e-02 3.58135781024302e-03 
1.21640477537772e+01 1.34763924951940e-02 3.54854031303684e-03 
1.22488146370788e+01 1.31975225920195e-02 3.51517414199173e-03 
1.23335815203803e+01 1.29217844067706e-02 3.48130478805093e-03 
1.24183484036819e+01 1.26492065963519e-02 3.44697638726078e-03 
1.25031152869835e+01 1.23798142087650e-02 3.41223174521261e-03 
1.25878821702851e+01 1.21136288079562e-02 3.37711236231949e-03 
1.26726490535867e+01 1.18506686001063e-02 3.34164957898323e-03 
1.27574159368883e+01 1.15909466322364e-02 3.30582536913074e-03 
1.28421828201898e+01 1.13344685640107e-02 3.26959442824450e-03 
1.29269497034914e+01 1.10812580558126e-02 3.23296151818654e-03 
1.30117165867930e+01 1.08313350606767e-02 3.19597147974534e-03 
1.30964834700946e+01 1.05847159581007e-02 3.15866772944294e-03 
1.31812503533962e+01 1.03414136879854e-02 3.12109228410255e-03 
1.32660172366978e+01 1.01014378787805e-02 3.08328542955030e-03 
1.33507841199993e+01 9.86479503080799e-03 3.04528559610854e-03 
1.34355510033009e+01 9.63148866135915e-03 3.00713015653053e-03 
1.35203178866025e+01 9.40151936266434e-03 2.96885581674209e-03 
1.36050847699041e+01 9.17488488551273e-03 2.93049821662344e-03 
1.36898516532057e+01 8.95158025764421e-03 2.89207342129631e-03 
1.37746185365073e+01 8.73159294466861e-03 2.85355164036922e-03 
1.38593854198088e+01 8.51491031594506e-03 2.81489615373085e-03 
1.39441523031104e+01 8.30153374121318e-03 2.77611779852141e-03 
1.40289191864120e+01 8.09146148155213e-03 2.73725595490493e-03 
1.41136860697136e+01 7.88468881924128e-03 2.69834856173600e-03 
1.41984529530152e+01 7.68120818593745e-03 2.65943214605394e-03 
1.42832198363168e+01 7.48100928627707e-03 2.62054185429642e-03 
1.43679867196183e+01 7.28407921957820e-03 2.58171148269738e-03 
1.44527536029199e+01 7.09040259713733e-03 2.54297350850257e-03 
1.45375204862215e+01 6.89996165754761e-03 2.50435912057595e-03 
1.46222873695231e+01 6.71273637775014e-03 2.46589825135374e-03 
1.47070542528247e+01 6.52870458194923e-03 2.42756854221896e-03 
1.47918211361263e+01 6.34782496154350e-03 2.38926944028031e-03 
1.48765880194278e+01 6.17007428435755e-03 2.35092234227637e-03 
1.49613549027294e+01 5.99544903314986e-03 2.31253612163546e-03 
1.50461217860310e+01 5.82394830729120e-03 2.27415861107817e-03 
1.51308886693326e+01 5.65568890903997e-03 2.23581745971700e-03 
1.52156555526342e+01 5.49065325926304e-03 2.19756172175258e-03 
1.53004224359358e+01 5.32882095206632e-03 2.15942902422764e-03 
1.53851893192373e+01 5.17016890894794e-03 2.12145528246765e-03 
1.54699562025389e+01 5.01467152771327e-03 2.08367474418361e-03 
1.55547230858405e+01 4.86230082729019e-03 2.04611995608074e-03 
1.56394899691421e+01 4.71302659881787e-03 2.00882174386303e-03 
1.57242568524437e+01 4.56681655059954e-03 1.97180943086467e-03 
1.58090237357453e+01 4.42363642426750e-03 1.93510763565940e-03 
1.58937906190468e+01 4.28339834790096e-03 1.89815247070167e-03 
1.59785575023484e+01 4.14610620125776e-03 1.86090995317628e-03 
1.60633243856500e+01 4.01171150249599e-03 1.82335482511355e-03 
1.61480912689516e+01 3.88026364278815e-03 1.78549123091198e-03 
1.62328581522532e+01 3.75173566613499e-03 1.74739038803521e-03 
1.63176250355548e+01 3.62617433631244e-03 1.70911498053650e-03 
1.64023919188563e+01 3.50354345689148e-03 1.67074804704011e-03 
1.64871588021579e+01 3.38387764796084e-03 1.63235483679820e-03 
1.65719256854595e+01 3.26714040698076e-03 1.59406517112674e-03 
1.66566925687611e+01 3.15336370386030e-03 1.55597822223468e-03 
1.67414594520627e+01 3.04248616194641e-03 1.51818104175836e-03 
1.68262263353643e+01 2.93451014824666e-03 1.48069769175456e-03 
1.69109932186658e+01 2.82937101989630e-03 1.44358129035693e-03 
1.69957601019674e+01 2.72706372402181e-03 1.40683556220844e-03 
1.70805269852690e+01 2.62756625925939e-03 1.37044200228281e-03 
1.71652938685706e+01 2.53092425636069e-03 1.33436001423639e-03 
1.72500607518722e+01 2.43707373291052e-03 1.29861823342410e-03 
1.73348276351737e+01 2.34600411094284e-03 1.26324529700410e-03 
1.74195945184753e+01 2.25764771014232e-03 1.22828315334077e-03 
1.75043614017769e+01 2.17198841023115e-03 1.19374862579336e-03 
1.75891282850785e+01 2.08895369739199e-03 1.15966930846565e-03 
1.76738951683801e+01 2.00852198160626e-03 1.12605155380367e-03 
1.77586620516817e+01 1.93062352943268e-03 1.09292747497523e-03 
1.78434289349832e+01 1.85523509671225e-03 1.06030870032153e-03 
1.79281958182848e+01 1.78228584626777e-03 1.02822620211629e-03 
1.80129627015864e+01 1.71174874721729e-03 9.96683652208249e-04 
1.80977295848880e+01 1.64355072415083e-03 9.65700588748146e-04 
1.81824964681896e+01 1.57766163738501e-03 9.35275275505524e-04 
1.82672633514912e+01 1.51401171665626e-03 9.05429245160113e-04 
1.83520302347927e+01 1.45256964658189e-03 8.76163578960052e-04 
1.84367971180943e+01 1.39326610930315e-03 8.47497533647283e-04 
1.85215640013959e+01 1.33606774481996e-03 8.19435617521715e-04 
1.86063308846975e+01 1.28091030120306e-03 7.92005765437227e-04 
1.86910977679991e+01 1.22775830931608e-03 7.65210911057588e-04 
1.87758646513007e+01 1.17654240006424e-03 7.39062729934292e-04 
1.88606315346022e+01 1.12722455857007e-03 7.13551083456286e-04 
1.89453984179038e+01 1.07973749427022e-03 6.88682697657887e-04 
1.90301653012054e+01 1.03404297426009e-03 6.64445742231482e-04 
1.91149321845070e+01 9.90076003713112e-04 6.40844482860061e-04 
1.91996990678086e+01 9.47798462117350e-04 6.17865713419952e-04 
1.92844659511102e+01 9.07147818228123e-04 5.95511505096600e-04 
1.93692328344117e+01 8.68086351025813e-04 5.73767555745417e-04 
1.94539997177133e+01 8.30554117468736e-04 5.52633996186235e-04 
1.95387666010149e+01 7.94514042540763e-04 5.32095675701160e-04 
1.96235334843165e+01 7.59908858283712e-04 5.12151024593782e-04 
1.97083003676181e+01 7.26702344596482e-04 4.92784261759837e-04 
1.97930672509197e+01 6.94839962675594e-04 4.73992340939194e-04 
1.98778341342212e+01 6.64286521759485e-04 4.55759798436475e-04 
1.99626010175228e+01 6.34990748841273e-04 4.38085323350674e-04 
2.00473679008244e+01 6.06915809692051e-04 4.20952266972696e-04 
2.01321347841260e+01 5.79947876627420e-04 4.04383467207854e-04 
2.02169016674276e+01 5.54057836396811e-04 3.88354106011851e-04 
2.03016685507292e+01 5.29202807335371e-04 3.72857435122182e-04 
2.03864354340307e+01 5.05354631360234e-04 3.57876548477615e-04 
2.04712023173323e+01 4.82472707105279e-04 3.43404147840337e-04 
2.05559692006339e+01 4.60529899589968e-04 3.29423642114852e-04 
2.06407360839355e+01 4.39487841796059e-04 3.15927308341668e-04 
2.07255029672371e+01 4.19320473310917e-04 3.02898934028582e-04 
2.08102698505387e+01 3.99991607258844e-04 2.90330483532672e-04 
2.08950367338402e+01 3.81476294574169e-04 2.78206176452351e-04 
2.09798036171418e+01 3.63740467427821e-04 2.66517764043179e-04 
2.10645705004434e+01 3.46760311869287e-04 2.55249942094223e-04 
2.11493373837450e+01 3.30503812387374e-04 2.44394336661892e-04 
2.12341042670466e+01 3.14948302471077e-04 2.33936155199687e-04 
2.13188711503482e+01 3.00063747717954e-04 2.23866975560210e-04 
2.14036380336497e+01 2.85828631396509e-04 2.14172544422828e-04 
2.14884049169513e+01 2.72214825577346e-04 2.04844458292054e-04 
2.15731718002529e+01 2.59201957017354e-04 1.95869022442419e-04 
2.16579386835545e+01 2.46763727282714e-04 1.87237907258184e-04 
2.17427055668561e+01 2.34880893236790e-04 1.78937991208426e-04 
2.18274724501577e+01 2.23528907256870e-04 1.70961072160850e-04 
2.19122393334592e+01 2.12689636075451e-04 1.63294612098739e-04 
2.19970062167608e+01 2.02340203058006e-04 1.55931476374208e-04 
2.20817731000624e+01 1.92464218599762e-04 1.48861777041856e-04 
2.21665399833640e+01 1.83040877325246e-04 1.42079904518679e-04 
2.22513068666656e+01 1.74053931061347e-04 1.35577956745567e-04 
2.23360737499672e+01 1.65485111816195e-04 1.29351375982073e-04 
2.24208406332687e+01 1.57318182857329e-04 1.23390570791146e-04 
2.25056075165703e+01 1.49533698880280e-04 1.17686777752227e-04 
2.25903743998719e+01 1.42116639882630e-04 1.12228403601400e-04 
2.26751412831735e+01 1.35049138791016e-04 1.07007211112417e-04 
2.27599081664751e+01 1.28317316119249e-04 1.02012432912813e-04 
2.28446750497767e+01 1.21904767817577e-04 9.72363388554468e-05 
2.29294419330782e+01 1.15798681818564e-04 9.26689379736689e-05 
2.30142088163798e+01 1.09984009030964e-04 8.83029871235379e-05 
2.30989756996814e+01 1.04448934914316e-04 8.41292242671483e-05 
2.31837425829830e+01 9.91796641014125e-05 8.01408725230940e-05 
2.32685094662846e+01 9.41653129435893e-05 7.63293533229442e-05 
2.33532763495861e+01 8.93932450830611e-05 7.26883348982812e-05 
2.34380432328877e+01 8.48534444023674e-05 6.92098787070019e-05 
2.35228101161893e+01 8.05343450500351e-05 6.58880767552185e-05 
2.36075769994909e+01 7.64267383438394e-05 6.27155890884938e-05 
2.36923438827925e+01 7.25200463424598e-05 5.96869101512639e-05 
2.37771107660941e+01 6.88058109336066e-05 5.67953882389083e-05 
2.38618776493956e+01 6.52744659334478e-05 5.40360766392805e-05 
2.39466445326972e+01 6.19182349471050e-05 5.14028328211796e-05 
2.40314114159988e+01 5.87282509857074e-05 4.88908731494080e-05 
2.41161782993004e+01 5.56973626453828e-05 4.64943730728563e-05 
2.42009451826020e+01 5.28174839087421e-05 4.42088691243797e-05 
2.42857120659036e+01 5.00820688682788e-05 4.20289994178208e-05 
2.43704789492051e+01 4.74837490299598e-05 3.99506283256549e-05 
2.44552458325067e+01 4.50165381387253e-05 3.79688233442237e-05 
2.45400127158083e+01 4.26737264622594e-05 3.60797562239489e-05 
2.46247795991099e+01 4.04498445429052e-05 3.42788924243845e-05 
2.47095464824115e+01 3.83387870590940e-05 3.25629288054773e-05 
2.47943133657131e+01 3.63357500907831e-05 3.09281011657267e-05 
2.48790802490146e+01 3.44352302769899e-05 2.93714570745481e-05 
2.49638471323162e+01 3.26325762481511e-05 2.78891797427638e-05 
2.50486140156178e+01 3.09225245359254e-05 2.64781023076898e-05 
2.51333808989194e+01 2.92992714835504e-05 2.51356471185455e-05 
2.52181477822210e+01 2.77582884041256e-05 2.38587439150761e-05 
2.53029146655226e+01 2.62958447582687e-05 2.26440737579720e-05 
2.53876815488241e+01 2.49078301870317e-05 2.14889825633206e-05 
2.54724484321257e+01 2.35908487517862e-05 2.03904437046455e-05 
2.55572153154273e+01 2.23411715592288e-05 1.93460267985539e-05 
2.56419821987289e+01 2.11557090524352e-05 1.83529731614822e-05 
2.57267490820305e+01 2.00310800163639e-05 1.74090587137240e-05 
2.58115159653321e+01 1.89644752529676e-05 1.65117702395440e-05 
2.58962828486336e+01 1.79528302737629e-05 1.56590737588969e-05 
2.59810497319352e+01 1.69935922622240e-05 1.48486808081143e-05 
2.60658166152368e+01 1.60839851182805e-05 1.40787324306568e-05 
2.61505834985384e+01 1.52216903325179e-05 1.33471458321398e-05 
2.62353503818400e+01 1.44041942625348e-05 1.26522230688806e-05 
2.63201172651416e+01 1.36293923999335e-05 1.19920694463630e-05 
