Energy(eV)           EEDF(eV^-(3/2))      Anisotropy(eV^-(3/2))
5.15173382230475e-02 4.51594369335338e-02 1.37457926634681e-03 
1.54552014669142e-01 4.51223528279190e-02 8.13437577561995e-03 
2.57586691115237e-01 4.51112977496797e-02 7.96460414916573e-03 
3.60621367561332e-01 4.50981218342198e-02 7.85031395683373e-03 
4.63656044007427e-01 4.50766189165385e-02 7.77655223936867e-03 
5.66690720453522e-01 4.50466847246923e-02 7.71109224546596e-03 
6.69725396899617e-01 4.50085547165105e-02 7.64927485082643e-03 
7.72760073345712e-01 4.49622970284453e-02 7.59024144529227e-03 
8.75794749791807e-01 4.49080478991746e-02 7.53302119059852e-03 
9.78829426237902e-01 4.48458902105051e-02 7.47721022083220e-03 
1.08186410268400e+00 4.47763905029652e-02 7.42256941940096e-03 
1.18489877913009e+00 4.47007686238270e-02 7.36863833072330e-03 
1.28793345557619e+00 4.46187583447204e-02 7.31610294130372e-03 
1.39096813202228e+00 4.45301777995702e-02 7.26570574792709e-03 
1.49400280846838e+00 4.44356707040547e-02 7.21742985003393e-03 
1.59703748491447e+00 4.43361194647422e-02 7.17081691701516e-03 
1.70007216136057e+00 4.42326113399779e-02 7.12530256392891e-03 
1.80310683780666e+00 4.41251840520424e-02 7.08071283631505e-03 
1.90614151425276e+00 4.40138782107903e-02 7.03671335438035e-03 
2.00917619069885e+00 4.38974577762159e-02 6.99331349320473e-03 
2.11221086714495e+00 4.37749826955071e-02 6.95054907319733e-03 
2.21524554359104e+00 4.36479228730261e-02 6.90797848940547e-03 
2.31828022003714e+00 4.35162222374973e-02 6.86605328932631e-03 
2.42131489648323e+00 4.33794013947036e-02 6.82545778572655e-03 
2.52434957292933e+00 4.32374976814052e-02 6.78618753994139e-03 
2.62738424937542e+00 4.30894686044248e-02 6.74811095654141e-03 
2.73041892582152e+00 4.29349828420863e-02 6.71097208608559e-03 
2.83345360226761e+00 4.27741005841463e-02 6.67458323382578e-03 
2.93648827871371e+00 4.26074801195830e-02 6.63872184547008e-03 
3.03952295515980e+00 4.24353052232965e-02 6.60330104098342e-03 
3.14255763160590e+00 4.22582664869837e-02 6.56814407864467e-03 
3.24559230805199e+00 4.20765009095474e-02 6.53336060109829e-03 
3.34862698449809e+00 4.18900535635616e-02 6.49955354100928e-03 
3.45166166094418e+00 4.16989412176392e-02 6.46737497490828e-03 
3.55469633739028e+00 4.15031650326135e-02 6.43684891406890e-03 
3.65773101383637e+00 4.13027530613315e-02 6.40766679182007e-03 
3.76076569028247e+00 4.10980441057439e-02 6.37953158077124e-03 
3.86380036672856e+00 4.08890532118914e-02 6.35221874017149e-03 
3.96683504317465e+00 4.06758007761008e-02 6.32551411370992e-03 
4.06986971962075e+00 4.04582024308105e-02 6.29922773417283e-03 
4.17290439606685e+00 4.02357844513648e-02 6.27321992694550e-03 
4.27593907251294e+00 4.00085872656133e-02 6.24732476631950e-03 
4.37897374895903e+00 3.97766558708043e-02 6.22141624554648e-03 
4.48200842540513e+00 3.95400396374405e-02 6.19558514889343e-03 
4.58504310185122e+00 3.92990393310837e-02 6.17016748325529e-03 
4.68807777829732e+00 3.90542164834920e-02 6.14532378833674e-03 
4.79111245474341e+00 3.88055865465751e-02 6.12095911519614e-03 
4.89414713118951e+00 3.85531716656844e-02 6.09689041528172e-03 
4.99718180763560e+00 3.82970003653832e-02 6.07295330335074e-03 
5.10021648408170e+00 3.80367334665697e-02 6.04885810099827e-03 
5.20325116052779e+00 3.77720128607102e-02 6.02417172195783e-03 
5.30628583697389e+00 3.75029190025815e-02 5.99863877584633e-03 
5.40932051341998e+00 3.72295373731246e-02 5.97222892238830e-03 
5.51235518986608e+00 3.69519558826936e-02 5.94494323589934e-03 
5.61538986631217e+00 3.66702647318369e-02 5.91678711770421e-03 
5.71842454275827e+00 3.63845561262464e-02 5.88777352291246e-03 
5.82145921920436e+00 3.60949237829438e-02 5.85792255490321e-03 
5.92449389565046e+00 3.58014626169099e-02 5.82725752521866e-03 
6.02752857209655e+00 3.55042685816345e-02 5.79580594974757e-03 
6.13056324854265e+00 3.52031485858834e-02 5.76364385427071e-03 
6.23359792498874e+00 3.48981123301855e-02 5.73084157128647e-03 
6.33663260143484e+00 3.45892560106713e-02 5.69743990058085e-03 
6.43966727788093e+00 3.42766765447395e-02 5.66346037077924e-03 
6.54270195432703e+00 3.39604712665411e-02 5.62892691369443e-03 
6.64573663077312e+00 3.36407377910816e-02 5.59386531865124e-03 
6.74877130721922e+00 3.33175737490088e-02 5.55830290382362e-03 
6.85180598366531e+00 3.29910766710400e-02 5.52226827994597e-03 
6.95484066011141e+00 3.26613437359417e-02 5.48578974776921e-03 
7.05787533655750e+00 3.23283395319242e-02 5.44886965834968e-03 
7.16091001300360e+00 3.19901680218225e-02 5.41160168471978e-03 
7.26394468944969e+00 3.16469589500461e-02 5.37389137474097e-03 
7.36697936589579e+00 3.12988430474669e-02 5.33576867196089e-03 
7.47001404234188e+00 3.09459497644984e-02 5.29727960532652e-03 
7.57304871878798e+00 3.05884070528066e-02 5.25846876536406e-03 
7.67608339523407e+00 3.02263412765982e-02 5.21937926989835e-03 
7.77911807168017e+00 2.98598770187917e-02 5.18005277764021e-03 
7.88215274812626e+00 2.94891370105163e-02 5.14052946401513e-03 
7.98518742457236e+00 2.91142419607473e-02 5.10085231796172e-03 
8.08822210101845e+00 2.87358425185837e-02 5.06103798170337e-03 
8.19125677746455e+00 2.83550007307811e-02 5.02109607761180e-03 
8.29429145391064e+00 2.79718074221049e-02 4.98110362896060e-03 
8.39732613035674e+00 2.75863510257196e-02 4.94109325281524e-03 
8.50036080680283e+00 2.71987175964751e-02 4.90108794774344e-03 
8.60339548324893e+00 2.68089920426239e-02 4.86110157860555e-03 
8.70643015969502e+00 2.64172581644951e-02 4.82115332679729e-03 
8.80946483614112e+00 2.60235976302982e-02 4.78126831805990e-03 
8.91249951258721e+00 2.56280898540791e-02 4.74147133253113e-03 
9.01553418903331e+00 2.52308119593787e-02 4.70178585389359e-03 
9.11856886547940e+00 2.48318388219359e-02 4.66223409175625e-03 
9.22160354192550e+00 2.44312430434406e-02 4.62283704739819e-03 
9.32463821837159e+00 2.40290949965140e-02 4.58361456141500e-03 
9.42767289481769e+00 2.36254628030717e-02 4.54458537196361e-03 
9.53070757126378e+00 2.32204123814144e-02 4.50576711139864e-03 
9.63374224770988e+00 2.28140074370458e-02 4.46717634256295e-03 
9.73677692415597e+00 2.24063095150345e-02 4.42882858341553e-03 
9.83981160060207e+00 2.19973779977860e-02 4.39073835765968e-03 
9.94284627704816e+00 2.15872701591909e-02 4.35291921928074e-03 
1.00458809534943e+01 2.11760411684534e-02 4.31539811868259e-03 
1.01489156299404e+01 2.07678989212287e-02 4.27799973349298e-03 
1.02519503063864e+01 2.03630609213048e-02 4.24090234527882e-03 
1.03549849828325e+01 1.99615011955837e-02 4.20412525547981e-03 
1.04580196592786e+01 1.95631928869780e-02 4.16767675898816e-03 
1.05610543357247e+01 1.91681083408230e-02 4.13156444030461e-03 
1.06640890121708e+01 1.87762191499760e-02 4.09579524235155e-03 
1.07671236886169e+01 1.83874962285104e-02 4.06037077883789e-03 
1.08701583650630e+01 1.80019107511004e-02 4.02528447161781e-03 
1.09731930415091e+01 1.76194347758768e-02 3.99053196301789e-03 
1.10762277179552e+01 1.72400402004190e-02 3.95611786589231e-03 
1.11792623944013e+01 1.68636980939285e-02 3.92204986822628e-03 
1.12822970708474e+01 1.64903787751257e-02 3.88833472380723e-03 
1.13853317472935e+01 1.61200519095168e-02 3.85497830743123e-03 
1.14883664237396e+01 1.57526865772446e-02 3.82181135104118e-03 
1.15914011001857e+01 1.53882285233890e-02 3.78823845551449e-03 
1.16944357766318e+01 1.50266740907729e-02 3.75361135388536e-03 
1.17974704530779e+01 1.46681526334354e-02 3.71775105746300e-03 
1.19005051295240e+01 1.43127844633991e-02 3.68075394967347e-03 
1.20035398059701e+01 1.39606811008035e-02 3.64272010080298e-03 
1.21065744824162e+01 1.36126175585639e-02 3.60371033492075e-03 
1.22096091588622e+01 1.32692530468601e-02 3.56381015017531e-03 
1.23126438353083e+01 1.29306460155611e-02 3.52313018710867e-03 
1.24156785117544e+01 1.25968464740878e-02 3.48175104028669e-03 
1.25187131882005e+01 1.22678963509887e-02 3.43975036636659e-03 
1.26217478646466e+01 1.19438298550099e-02 3.39720294524921e-03 
1.27247825410927e+01 1.16246738156615e-02 3.35412705890627e-03 
1.28278172175388e+01 1.13104376684332e-02 3.31047362988721e-03 
1.29308518939849e+01 1.10011503989515e-02 3.26623250612080e-03 
1.30338865704310e+01 1.06968435387092e-02 3.22146573944011e-03 
1.31369212468771e+01 1.03975407675569e-02 3.17625125663737e-03 
1.32399559233232e+01 1.01032582848305e-02 3.13066361318466e-03 
1.33429905997693e+01 9.81400521895070e-03 3.08477338108852e-03 
1.34460252762154e+01 9.52978410410623e-03 3.03864798241646e-03 
1.35490599526615e+01 9.25059112556433e-03 2.99235322038405e-03 
1.36520946291076e+01 8.97641630551154e-03 2.94595031175559e-03 
1.37551293055537e+01 8.70724321539879e-03 2.89942887365316e-03 
1.38581639819998e+01 8.44303452180591e-03 2.85272315663856e-03 
1.39611986584459e+01 8.18378818920986e-03 2.80583761530574e-03 
1.40642333348920e+01 7.92949543908322e-03 2.75884279914008e-03 
1.41672680113381e+01 7.68014110561815e-03 2.71180611480752e-03 
1.42703026877841e+01 7.43570398427731e-03 2.66479190692464e-03 
1.43733373642302e+01 7.19615716549219e-03 2.61786154284831e-03 
1.44763720406763e+01 6.96146836068751e-03 2.57107349439599e-03 
1.45794067171224e+01 6.73160021424611e-03 2.52448342264606e-03 
1.46824413935685e+01 6.50651060747454e-03 2.47810180072164e-03 
1.47854760700146e+01 6.28613947761385e-03 2.43181927800971e-03 
1.48885107464607e+01 6.07042366122885e-03 2.38550223739344e-03 
1.49915454229068e+01 5.85935103484198e-03 2.33915178033924e-03 
1.50945800993529e+01 5.65306726527941e-03 2.29283634996591e-03 
1.51976147757990e+01 5.45176492923633e-03 2.24661423848028e-03 
1.53006494522451e+01 5.25539626787663e-03 2.20056919038108e-03 
1.54036841286912e+01 5.06390793130629e-03 2.15476477247195e-03 
1.55067188051373e+01 4.87724140752444e-03 2.10926085497499e-03 
1.56097534815834e+01 4.69533343160794e-03 2.06411341672162e-03 
1.57127881580295e+01 4.51811643458095e-03 2.01937472310698e-03 
1.58158228344756e+01 4.34551890706129e-03 1.97508858665595e-03 
1.59188575109217e+01 4.17738172479163e-03 1.93043178715534e-03 
1.60218921873678e+01 4.01370317332624e-03 1.88534012840929e-03 
1.61249268638139e+01 3.85439992357840e-03 1.83981174503284e-03 
1.62279615402600e+01 3.69954750764937e-03 1.79390560840303e-03 
1.63309962167060e+01 3.54907956839604e-03 1.74776521550180e-03 
1.64340308931521e+01 3.40305118572922e-03 1.70148667507279e-03 
1.65370655695982e+01 3.26137936212156e-03 1.65526396091524e-03 
1.66401002460443e+01 3.12412024724494e-03 1.60926889316989e-03 
1.67431349224904e+01 2.99116463340846e-03 1.56367951797155e-03 
1.68461695989365e+01 2.86250389084999e-03 1.51854558690313e-03 
1.69492042753826e+01 2.73801570783707e-03 1.47396030032224e-03 
1.70522389518287e+01 2.61767842125377e-03 1.42991333020435e-03 
1.71552736282748e+01 2.50159541930267e-03 1.38632353323072e-03 
1.72583083047209e+01 2.38973731876073e-03 1.34320620724899e-03 
1.73613429811670e+01 2.28197624972232e-03 1.30063835168306e-03 
1.74643776576131e+01 2.17827161120753e-03 1.25865739355257e-03 
1.75674123340592e+01 2.07848973093169e-03 1.21731961061010e-03 
1.76704470105053e+01 1.98257599575493e-03 1.17663451799436e-03 
1.77734816869514e+01 1.89039895915999e-03 1.13665526593701e-03 
1.78765163633975e+01 1.80190426555286e-03 1.09739945563883e-03 
1.79795510398436e+01 1.71695960258722e-03 1.05891790761614e-03 
1.80825857162897e+01 1.63550292844949e-03 1.02121043251114e-03 
1.81856203927358e+01 1.55740052267906e-03 9.84311175297576e-04 
1.82886550691818e+01 1.48258926043433e-03 9.48218242276328e-04 
1.83916897456279e+01 1.41094173642997e-03 9.12968410534682e-04 
1.84947244220740e+01 1.34239134152458e-03 8.78563778710853e-04 
1.85977590985201e+01 1.27681738191183e-03 8.45049045952706e-04 
1.87007937749662e+01 1.21415382075475e-03 8.12428491855367e-04 
1.88038284514123e+01 1.15427612571931e-03 7.80726499558281e-04 
1.89068631278584e+01 1.09711120996217e-03 7.49923741228651e-04 
1.90098978043045e+01 1.04253995181568e-03 7.20031517254743e-04 
1.91129324807506e+01 9.90490068704275e-04 6.91027299882192e-04 
1.92159671571967e+01 9.40848262865253e-04 6.62917459689218e-04 
1.93190018336428e+01 8.93543766709955e-04 6.35677030306267e-04 
1.94220365100889e+01 8.48469374837049e-04 6.09308116997357e-04 
1.95250711865350e+01 8.05556411003936e-04 5.83783968521155e-04 
1.96281058629811e+01 7.64703909401745e-04 5.59103043878086e-04 
1.97311405394272e+01 7.25845740905304e-04 5.35237362980548e-04 
1.98341752158733e+01 6.88887226254221e-04 5.12182306129331e-04 
1.99372098923194e+01 6.53765132518342e-04 4.89913175280587e-04 
2.00402445687655e+01 6.20393966059443e-04 4.68414930873261e-04 
2.01432792452116e+01 5.88592602542120e-04 4.47711365845206e-04 
2.02463139216577e+01 5.58272548643484e-04 4.27783009865711e-04 
2.03493485981037e+01 5.29385543837265e-04 4.08599311850796e-04 
2.04523832745498e+01 5.01863139076936e-04 3.90149605845293e-04 
2.05554179509959e+01 4.75659322118762e-04 3.72405928911265e-04 
2.06584526274420e+01 4.50710253176426e-04 3.55356613584538e-04 
2.07614873038881e+01 4.26972257605206e-04 3.38974442088416e-04 
2.08645219803342e+01 4.04385942031452e-04 3.23247020334074e-04 
2.09675566567803e+01 3.82910019593698e-04 3.08147998367175e-04 
2.10705913332264e+01 3.62489364868753e-04 2.93664494151086e-04 
2.11736260096725e+01 3.43085095731883e-04 2.79771122074592e-04 
2.12766606861186e+01 3.24646164804025e-04 2.66454717568743e-04 
2.13796953625647e+01 3.07136083757556e-04 2.53690932425257e-04 
2.14827300390108e+01 2.90507685581926e-04 2.41466494441230e-04 
2.15857647154569e+01 2.74726841731031e-04 2.29758141000063e-04 
2.16887993919030e+01 2.59750063859585e-04 2.18552631003226e-04 
2.17918340683491e+01 2.45545531538868e-04 2.07827824328569e-04 
2.18948687447952e+01 2.32073231157189e-04 1.97570651464742e-04 
2.19979034212413e+01 2.19303581332809e-04 1.87761635337081e-04 
2.21009380976874e+01 2.07201062814582e-04 1.78391293259311e-04 
2.22039727741335e+01 1.95739071328487e-04 1.69445240921424e-04 
2.23070074505796e+01 1.84885398485236e-04 1.60917028032566e-04 
2.24100421270256e+01 1.74614986582026e-04 1.52791133372569e-04 
2.25130768034717e+01 1.64895050166707e-04 1.45055212912022e-04 
2.26161114799178e+01 1.55700394211240e-04 1.37689042072449e-04 
2.27191461563639e+01 1.47001374853960e-04 1.30678855245082e-04 
2.28221808328100e+01 1.38775066608231e-04 1.24006089952685e-04 
2.29252155092561e+01 1.30994690173363e-04 1.17657941940873e-04 
2.30282501857022e+01 1.23639411303471e-04 1.11617392266131e-04 
2.31312848621483e+01 1.16685059800657e-04 1.05872554264901e-04 
2.32343195385944e+01 1.10112724935442e-04 1.00407840116412e-04 
2.33373542150405e+01 1.03900610416041e-04 9.52122351428550e-05 
2.34403888914866e+01 9.80315717940880e-05 9.02714763228163e-05 
2.35434235679327e+01 9.24859704749455e-05 8.55753743293214e-05 
2.36464582443788e+01 8.72482813547161e-05 8.11108906100318e-05 
2.37494929208249e+01 8.23008250807765e-05 7.68687592683247e-05 
2.38525275972710e+01 7.76296824858713e-05 7.28373507338615e-05 
2.39555622737171e+01 7.32190315797557e-05 6.90082273334231e-05 
2.40585969501632e+01 6.90561101246099e-05 6.53705560355131e-05 
2.41616316266093e+01 6.51265634515785e-05 6.19162567493931e-05 
2.42646663030554e+01 6.14188822143470e-05 5.86353286903425e-05 
2.43677009795014e+01 5.79201862721487e-05 5.55203496164645e-05 
2.44707356559475e+01 5.46201072031564e-05 5.25622197209062e-05 
2.45737703323936e+01 5.15070972242880e-05 4.97541287219096e-05 
2.46768050088397e+01 4.85718257102239e-05 4.70880108561241e-05 
2.47798396852858e+01 4.58041322678820e-05 4.45583392401670e-05 
2.48828743617319e+01 4.31960328396883e-05 4.21582095374252e-05 
2.49859090381780e+01 4.07380770656719e-05 3.98818148093321e-05 
2.50889437146241e+01 3.84203012857562e-05 3.77228758588471e-05 
2.51919783910702e+01 3.62307300540020e-05 3.56779000124249e-05 
2.52950130675163e+01 3.41630046277929e-05 3.37398834121058e-05 
2.53980477439624e+01 3.22100838133927e-05 3.19039703500523e-05 
2.55010824204085e+01 3.03662380446162e-05 3.01644883281352e-05 
2.56041170968546e+01 2.86251492697789e-05 2.85170226691292e-05 
2.57071517733007e+01 2.69816581495538e-05 2.69564479205587e-05 
2.58101864497468e+01 2.54300982802314e-05 2.54787534511247e-05 
2.59132211261929e+01 2.39658267339439e-05 2.40793104419030e-05 
2.60162558026390e+01 2.25837640263878e-05 2.27544780297600e-05 
2.61192904790851e+01 2.12797345629227e-05 2.15000779952708e-05 
2.62223251555312e+01 2.00491872104315e-05 2.03128075308567e-05 
2.63253598319773e+01 1.88883689929893e-05 1.91888970160712e-05 
2.64283945084233e+01 1.77932041650795e-05 1.81253523824618e-05 
2.65314291848694e+01 1.67603216715464e-05 1.71187742718438e-05 
2.66344638613155e+01 1.57860732914053e-05 1.61664503009840e-05 
2.67374985377616e+01 1.48674328833606e-05 1.52653164464616e-05 
2.68405332142077e+01 1.40011365215967e-05 1.44129170853863e-05 
2.69435678906538e+01 1.31844693584867e-05 1.36064917090235e-05 
2.70466025670999e+01 1.24145127431287e-05 1.28440698568982e-05 
2.71496372435460e+01 1.16890619925370e-05 1.21233798157877e-05 
2.72526719199921e+01 1.10054524260078e-05 1.14425913093508e-05 
2.73557065964382e+01 1.03614407146136e-05 1.07993860397130e-05 
2.74587412728843e+01 9.75464193512561e-06 1.01918674085385e-05 
2.75617759493304e+01 9.18305483996451e-06 9.61794935886622e-06 
2.76648106257765e+01 8.64455692020935e-06 9.07592950599441e-06 
2.77678453022226e+01 8.13736345028855e-06 8.56394138884453e-06 
2.78708799786687e+01 7.65958593744880e-06 8.08045744674210e-06 
2.79739146551148e+01 7.20963325306528e-06 7.62380808831797e-06 
2.80769493315609e+01 6.78582554393049e-06 7.19262305481159e-06 
2.81799840080070e+01 6.38674472485052e-06 6.78540919821276e-06 
2.82830186844531e+01 6.01089691241584e-06 6.40093773471759e-06 
2.83860533608992e+01 5.65701864535568e-06 6.03787360535399e-06 
2.84890880373452e+01 5.32378176460812e-06 5.69511521198281e-06 
2.85921227137913e+01 5.01006093270836e-06 5.37146909651982e-06 
2.86951573902374e+01 4.71467564009902e-06 5.06594795198233e-06 
2.87981920666835e+01 4.43662389850358e-06 4.77748511505081e-06 
2.89012267431296e+01 4.17485671574777e-06 4.50519593690173e-06 
2.90042614195757e+01 3.92848222888962e-06 4.24812725060404e-06 
2.91072960960218e+01 3.69656856998143e-06 4.00548657423523e-06 
2.92103307724679e+01 3.47832217077231e-06 3.77642230190402e-06 
2.93133654489140e+01 3.27291544987465e-06 3.56022466327286e-06 
2.94164001253601e+01 3.07964255395578e-06 3.35613290189030e-06 
2.95194348018062e+01 2.89776874176598e-06 3.16351143854949e-06 
2.96224694782523e+01 2.72666641797416e-06 2.98168075445292e-06 
2.97255041546984e+01 2.56568347913728e-06 2.81007178568612e-06 
2.98285388311445e+01 2.41426213863077e-06 2.64807762756758e-06 
2.99315735075906e+01 2.27182384076409e-06 2.49518881818009e-06 
3.00346081840367e+01 2.13787306228047e-06 2.35086354564109e-06 
3.01376428604828e+01 2.01175877060277e-06 2.21479070935786e-06 
3.02406775369289e+01 1.89302340896609e-06 2.08650095529327e-06 
3.03437122133750e+01 1.78122069161922e-06 1.96557644031364e-06 
3.04467468898211e+01 1.67596772138483e-06 1.85157714259828e-06 
3.05497815662671e+01 1.57686814148155e-06 1.74413097376223e-06 
3.06528162427132e+01 1.48358138154228e-06 1.64284623672118e-06 
3.07558509191593e+01 1.39575548134763e-06 1.54739108456074e-06 
3.08588855956054e+01 1.31308757589925e-06 1.45741689218265e-06 
3.09619202720515e+01 1.23526517593129e-06 1.37262776382033e-06 
3.10649549484976e+01 1.16201899795284e-06 1.29271345452140e-06 
3.11679896249437e+01 1.09307163942660e-06 1.21741017293999e-06 
3.12710243013898e+01 1.02818372006437e-06 1.14644186806585e-06 
3.13740589778359e+01 9.67109022336798e-07 1.07957341425238e-06 
3.14770936542820e+01 9.09634788690438e-07 1.01655922108377e-06 
3.15801283307281e+01 8.55542514720715e-07 9.57189752716710e-07 
3.16831630071742e+01 8.04643140575140e-07 9.01246549402738e-07 
3.17861976836203e+01 7.56742786055852e-07 8.48542914349725e-07 
3.18892323600664e+01 7.11673481459148e-07 7.98884548786213e-07 
3.19922670365125e+01 6.69263223031984e-07 7.52105135519559e-07 
