Energy(eV)           EEDF(eV^-(3/2))      Anisotropy(eV^-(3/2))
1.26347509768782e-03 3.19324601157213e+00 1.37319199628840e-03 
3.79042529306346e-03 3.18343514503007e+00 2.08175325043281e-03 
6.31737548843910e-03 3.16920819056104e+00 3.08932284206576e-03 
8.84432568381474e-03 3.15204864866036e+00 3.89636094224330e-03 
1.13712758791904e-02 3.13332059222566e+00 4.55979027372235e-03 
1.38982260745660e-02 3.11356614088942e+00 5.12214973769493e-03 
1.64251762699417e-02 3.09329476563250e+00 5.59210589650906e-03 
1.89521264653173e-02 3.07292118582282e+00 5.98365680449143e-03 
2.14790766606929e-02 3.05271736981480e+00 6.30589029260185e-03 
2.40060268560686e-02 3.03294202836909e+00 6.55491269457123e-03 
2.65329770514442e-02 3.01389230340725e+00 6.78451484697624e-03 
2.90599272468199e-02 2.99514839623490e+00 7.00397651445176e-03 
3.15868774421955e-02 2.97693470952128e+00 7.17025781327407e-03 
3.41138276375711e-02 2.95936537935872e+00 7.28915802055539e-03 
3.66407778329468e-02 2.94257329747185e+00 7.37987394601243e-03 
3.91677280283224e-02 2.92646799161608e+00 7.44929517461872e-03 
4.16946782236981e-02 2.91112161821665e+00 7.50529379182561e-03 
4.42216284190737e-02 2.89638959498560e+00 7.54766519368956e-03 
4.67485786144493e-02 2.88235989596567e+00 7.54944255635762e-03 
4.92755288098250e-02 2.86910793285504e+00 7.51976629832961e-03 
5.18024790052006e-02 2.85663255904825e+00 7.49489053472662e-03 
5.43294292005763e-02 2.84474957097362e+00 7.47155389643616e-03 
5.68563793959519e-02 2.83350566408150e+00 7.41654308661698e-03 
5.93833295913275e-02 2.82294006683225e+00 7.33954987897060e-03 
6.19102797867032e-02 2.81302823511416e+00 7.27138807887714e-03 
6.44372299820788e-02 2.80363386569634e+00 7.20672223643093e-03 
6.69641801774545e-02 2.79478174138029e+00 7.11679476110160e-03 
6.94911303728301e-02 2.78649198955197e+00 7.01110908073416e-03 
7.20180805682057e-02 2.77873469586651e+00 6.91425495693744e-03 
7.45450307635814e-02 2.77141721881757e+00 6.81983289183058e-03 
7.70719809589570e-02 2.76455212553952e+00 6.70466407802931e-03 
7.95989311543327e-02 2.75814890108262e+00 6.57852962827386e-03 
8.21258813497083e-02 2.75217562521947e+00 6.46236854045195e-03 
8.46528315450839e-02 2.74656466178896e+00 6.34877962550054e-03 
8.71797817404596e-02 2.74132166176729e+00 6.21794691814104e-03 
8.97067319358352e-02 2.73645017853339e+00 6.08082102684182e-03 
9.22336821312109e-02 2.73191655169782e+00 5.95703631751679e-03 
9.47606323265865e-02 2.72766671841617e+00 5.83764588087963e-03 
9.72875825219622e-02 2.72370279637738e+00 5.70411667534971e-03 
9.98145327173378e-02 2.72002550570923e+00 5.56621999219780e-03 
1.02341482912713e-01 2.71660845118458e+00 5.43874243467472e-03 
1.04868433108089e-01 2.71341719956536e+00 5.31326410211331e-03 
1.07395383303465e-01 2.71045174215137e+00 5.17587736293380e-03 
1.09922333498840e-01 2.70771108718632e+00 5.03709521909958e-03 
1.12449283694216e-01 2.70517057834814e+00 4.91046926492471e-03 
1.14976233889592e-01 2.70280362011929e+00 4.78656944739169e-03 
1.17503184084967e-01 2.70060928329381e+00 4.65276743002962e-03 
1.20030134280343e-01 2.69858596235658e+00 4.52098441662678e-03 
1.22557084475719e-01 2.69671029683568e+00 4.40435716325435e-03 
1.25084034671094e-01 2.69496108049952e+00 4.29184114710927e-03 
1.27610984866470e-01 2.69333733436987e+00 4.17136648488533e-03 
1.30137935061845e-01 2.69183764335011e+00 4.04913366574464e-03 
1.32664885257221e-01 2.69045109853361e+00 3.93097559952262e-03 
1.35191835452597e-01 2.68916894907698e+00 3.81101500558628e-03 
1.37718785647972e-01 2.68798959314968e+00 3.68393218404872e-03 
1.40245735843348e-01 2.68691108128027e+00 3.56124207345461e-03 
1.42772686038724e-01 2.68591741102057e+00 3.45232858776476e-03 
1.45299636234099e-01 2.68499799161161e+00 3.34600797400831e-03 
1.47826586429475e-01 2.68415156280026e+00 3.23396611083404e-03 
1.50353536624851e-01 2.68337664011049e+00 3.13188340592287e-03 
1.52880486820226e-01 2.68265626169981e+00 3.05064191134362e-03 
1.55407437015602e-01 2.68198118163026e+00 2.97473212143341e-03 
1.57934387210978e-01 2.68135089219329e+00 2.89478101199411e-03 
1.60461337406353e-01 2.68076477363545e+00 2.81078497697028e-03 
1.62988287601729e-01 2.68022209404620e+00 2.72274034931786e-03 
1.65515237797104e-01 2.67972200922502e+00 2.63064349336189e-03 
1.68042187992480e-01 2.67926356252987e+00 2.53449091471493e-03 
1.70569138187856e-01 2.67884568470922e+00 2.44830171745434e-03 
1.73096088383231e-01 2.67845780036516e+00 2.37914471341915e-03 
1.75623038578607e-01 2.67809585339334e+00 2.31277402794347e-03 
1.78149988773983e-01 2.67775941209702e+00 2.24352291740633e-03 
1.80676938969358e-01 2.67744798797315e+00 2.18029237753402e-03 
1.83203889164734e-01 2.67715603604718e+00 2.12672543475178e-03 
1.85730839360110e-01 2.67688178726274e+00 2.07378026615354e-03 
1.88257789555485e-01 2.67662499363974e+00 2.01861561436763e-03 
1.90784739750861e-01 2.67638537347863e+00 1.97155060143141e-03 
1.93311689946236e-01 2.67615766544917e+00 1.93595697075383e-03 
1.95838640141612e-01 2.67594063332794e+00 1.90134646541123e-03 
1.98365590336988e-01 2.67573420789750e+00 1.86520227776185e-03 
2.00892540532363e-01 2.67553830383853e+00 1.83546515663124e-03 
2.03419490727739e-01 2.67534946698153e+00 1.81408587106664e-03 
2.05946440923115e-01 2.67516712428676e+00 1.79305103616440e-03 
2.08473391118490e-01 2.67499128105461e+00 1.77095536045061e-03 
2.11000341313866e-01 2.67482193487770e+00 1.75599625557770e-03 
2.13527291509242e-01 2.67465593598112e+00 1.74957787480454e-03 
2.16054241704617e-01 2.67449295981421e+00 1.74350264346300e-03 
2.18581191899993e-01 2.67433304714541e+00 1.73680589369910e-03 
2.21108142095369e-01 2.67417623609232e+00 1.73787171832217e-03 
2.23635092290744e-01 2.67401954334981e+00 1.74753380173478e-03 
2.26162042486120e-01 2.67386280083217e+00 1.75752501247912e-03 
2.28688992681495e-01 2.67370603770691e+00 1.76729955291588e-03 
2.31215942876871e-01 2.67354928281799e+00 1.78456380541423e-03 
2.33742893072247e-01 2.67338985100694e+00 1.80956845659275e-03 
2.36269843267622e-01 2.67322766590328e+00 1.83483662929428e-03 
2.38796793462998e-01 2.67306270257101e+00 1.86040515074510e-03 
2.41323743658374e-01 2.67289487153700e+00 1.89379936296772e-03 
2.43850693853749e-01 2.67272146101024e+00 1.93481249375639e-03 
2.46377644049125e-01 2.67254234952759e+00 1.97625580698668e-03 
2.48904594244501e-01 2.67235741437746e+00 2.01854546335813e-03 
2.51431544439876e-01 2.67216637786499e+00 2.06759875771450e-03 
2.53958494635252e-01 2.67196689820818e+00 2.12291449983246e-03 
2.56485444830627e-01 2.67175873751546e+00 2.17890099554571e-03 
2.59012395026003e-01 2.67154165484081e+00 2.23623912786799e-03 
2.61539345221379e-01 2.67131513877907e+00 2.30054331289345e-03 
2.64066295416754e-01 2.67107668375888e+00 2.37101648061254e-03 
2.66593245612130e-01 2.67082590031181e+00 2.44238497362797e-03 
2.69120195807506e-01 2.67056239350855e+00 2.51554050342472e-03 
2.71647146002881e-01 2.67028538392011e+00 2.59550050108487e-03 
2.74174096198257e-01 2.66999225894665e+00 2.68125422647923e-03 
2.76701046393633e-01 2.66968245060442e+00 2.76809898603435e-03 
2.79227996589008e-01 2.66935538277937e+00 2.85737667543621e-03 
2.81754946784384e-01 2.66900984670922e+00 2.95466457859907e-03 
2.84281896979760e-01 2.66864253644499e+00 3.05848274813027e-03 
2.86808847175135e-01 2.66825263666861e+00 3.16360426084488e-03 
2.89335797370511e-01 2.66783932042437e+00 3.27002325400643e-03 
2.91862747565886e-01 2.66740174922521e+00 3.37773360361930e-03 
2.94389697761262e-01 2.66693907316420e+00 3.48672891724864e-03 
2.96916647956638e-01 2.66645043103103e+00 3.59700252684128e-03 
2.99443598152013e-01 2.66593495043393e+00 3.71215414558910e-03 
3.01970548347389e-01 2.66538971422398e+00 3.84141772898747e-03 
3.04497498542765e-01 2.66480828397172e+00 3.98101334707706e-03 
3.07024448738140e-01 2.66418926556398e+00 4.12223374025049e-03 
3.09551398933516e-01 2.66353124670819e+00 4.26506585047054e-03 
3.12078349128892e-01 2.66283279723563e+00 4.40949603785443e-03 
3.14605299324267e-01 2.66209246941890e+00 4.55551006578842e-03 
3.17132249519643e-01 2.66130879830411e+00 4.70309308616403e-03 
3.19659199715018e-01 2.66048030205809e+00 4.85222962476419e-03 
3.22186149910394e-01 2.65960548233092e+00 5.00290356679363e-03 
3.24713100105770e-01 2.65868282463409e+00 5.15509814257686e-03 
3.27240050301145e-01 2.65771079873479e+00 5.30879591339787e-03 
3.29767000496521e-01 2.65668785906636e+00 5.46397875749156e-03 
3.32293950691897e-01 2.65561244515557e+00 5.62062785622909e-03 
3.34820900887272e-01 2.65448298206667e+00 5.77872368049238e-03 
3.37347851082648e-01 2.65329788086282e+00 5.93824597722530e-03 
3.39874801278024e-01 2.65205553908502e+00 6.09917375619767e-03 
3.42401751473399e-01 2.65075434124886e+00 6.26148527702738e-03 
3.44928701668775e-01 2.64939265935939e+00 6.42515803641499e-03 
3.47455651864151e-01 2.64796885344434e+00 6.59016875564536e-03 
3.49982602059526e-01 2.64648127210601e+00 6.76213580553061e-03 
3.52509552254902e-01 2.64492320387376e+00 6.94668120898528e-03 
3.55036502450277e-01 2.64328739279228e+00 7.13822508442148e-03 
3.57563452645653e-01 2.64157162850029e+00 7.33122274291383e-03 
3.60090402841029e-01 2.63977368776038e+00 7.52563780727269e-03 
3.62617353036404e-01 2.63789133545820e+00 7.72143267182410e-03 
3.65144303231780e-01 2.63592232563535e+00 7.91856848693429e-03 
3.67671253427156e-01 2.63386440255637e+00 8.11700514430917e-03 
3.70198203622531e-01 2.63171530181001e+00 8.31670126308898e-03 
3.72725153817907e-01 2.62947275144484e+00 8.51761417682527e-03 
3.75252104013283e-01 2.62713447313964e+00 8.71969992135591e-03 
3.77779054208658e-01 2.62469818340838e+00 8.92291322360687e-03 
3.80306004404034e-01 2.62216159484006e+00 9.12720749139861e-03 
3.82832954599409e-01 2.61952241737341e+00 9.33253480426592e-03 
3.85359904794785e-01 2.61677835960627e+00 9.53884590537166e-03 
3.87886854990161e-01 2.61392713013989e+00 9.74609019452618e-03 
3.90413805185536e-01 2.61096643895762e+00 9.95421572237907e-03 
3.92940755380912e-01 2.60789399883821e+00 1.01631691858263e-02 
3.95467705576288e-01 2.60470752680321e+00 1.03728959246660e-02 
3.97994655771663e-01 2.60140474559834e+00 1.05833399195535e-02 
4.00521605967039e-01 2.59798338520838e+00 1.07982153196899e-02 
4.03048556162415e-01 2.59443629339575e+00 1.10189156867264e-02 
4.05575506357790e-01 2.59075896476786e+00 1.12417030990016e-02 
4.08102456553166e-01 2.58694890304047e+00 1.14649990443684e-02 
4.10629406748542e-01 2.58300362699343e+00 1.16887336860696e-02 
4.13156356943917e-01 2.57892067244419e+00 1.19128356393913e-02 
4.15683307139293e-01 2.57469759425846e+00 1.21372319817814e-02 
4.18210257334668e-01 2.57033196839712e+00 1.23618482649982e-02 
4.20737207530044e-01 2.56582139399808e+00 1.25866085293712e-02 
4.23264157725420e-01 2.56116349549208e+00 1.28114353201914e-02 
4.25791107920795e-01 2.55635592475114e+00 1.30362497062869e-02 
4.28318058116171e-01 2.55139636326807e+00 1.32609713008375e-02 
4.30845008311547e-01 2.54628252436593e+00 1.34855182844598e-02 
4.33371958506922e-01 2.54101215543544e+00 1.37098074306069e-02 
4.35898908702298e-01 2.53558304019909e+00 1.39337541333299e-02 
4.38425858897674e-01 2.52999300099980e+00 1.41572724374174e-02 
4.40952809093049e-01 2.52423990111254e+00 1.43802750709677e-02 
4.43479759288425e-01 2.51832164707678e+00 1.46026734804140e-02 
4.46006709483801e-01 2.51223619104772e+00 1.48243778680253e-02 
4.48533659679176e-01 2.50598153316419e+00 1.50452972319088e-02 
4.51060609874552e-01 2.49955572393087e+00 1.52653394085397e-02 
4.53587560069927e-01 2.49295686661247e+00 1.54844111178272e-02 
4.56114510265303e-01 2.48618311963746e+00 1.57024180107352e-02 
4.58641460460679e-01 2.47923269900871e+00 1.59192647194619e-02 
4.61168410656054e-01 2.47210388071835e+00 1.61348549101874e-02 
4.63695360851430e-01 2.46479500316422e+00 1.63490913383769e-02 
4.66222311046806e-01 2.45730446956494e+00 1.65618759066514e-02 
4.68749261242181e-01 2.44963075037064e+00 1.67731097252115e-02 
4.71276211437557e-01 2.44177238566646e+00 1.69826931747891e-02 
4.73803161632933e-01 2.43372798756558e+00 1.71905259721235e-02 
4.76330111828308e-01 2.42549624258857e+00 1.73965072379248e-02 
4.78857062023684e-01 2.41707591402593e+00 1.76005355673081e-02 
4.81384012219059e-01 2.40846584428030e+00 1.78025091026502e-02 
4.83910962414435e-01 2.39966495718505e+00 1.80023256088420e-02 
4.86437912609811e-01 2.39067226029564e+00 1.81998825508815e-02 
4.88964862805186e-01 2.38148684715035e+00 1.83950771737625e-02 
4.91491813000562e-01 2.37210789949660e+00 1.85878065845903e-02 
4.94018763195938e-01 2.36253468947941e+00 1.87779678368727e-02 
4.96545713391313e-01 2.35276658178809e+00 1.89654580169251e-02 
4.99072663586689e-01 2.34280303575751e+00 1.91494673840249e-02 
5.01599613782065e-01 2.33264516124045e+00 1.93253256891358e-02 
5.04126563977440e-01 2.32230283859863e+00 1.94937940985625e-02 
5.06653514172816e-01 2.31177595073035e+00 1.96593499049532e-02 
5.09180464368192e-01 2.30106447202078e+00 1.98219021332978e-02 
5.11707414563567e-01 2.29016846983892e+00 1.99813603696283e-02 
5.14234364758943e-01 2.27908810597601e+00 2.01376348446958e-02 
5.16761314954318e-01 2.26782363802237e+00 2.02906365187257e-02 
5.19288265149694e-01 2.25637542067939e+00 2.04402771671247e-02 
5.21815215345070e-01 2.24474390700396e+00 2.05864694670464e-02 
5.24342165540445e-01 2.23292964958217e+00 2.07291270847176e-02 
5.26869115735821e-01 2.22093330162936e+00 2.08681647634109e-02 
5.29396065931197e-01 2.20875561801363e+00 2.10034984119509e-02 
5.31923016126572e-01 2.19639745619997e+00 2.11350451936323e-02 
5.34449966321948e-01 2.18385977711209e+00 2.12627236154395e-02 
5.36976916517323e-01 2.17114364590936e+00 2.13864536174334e-02 
5.39503866712699e-01 2.15825023267605e+00 2.15061566621842e-02 
5.42030816908075e-01 2.14518081302031e+00 2.16217558241207e-02 
5.44557767103450e-01 2.13193676858040e+00 2.17331758786569e-02 
5.47084717298826e-01 2.11851958743562e+00 2.18403433909628e-02 
5.49611667494202e-01 2.10493086441974e+00 2.19431868042430e-02 
5.52138617689577e-01 2.09117230133462e+00 2.20416365273806e-02 
5.54665567884953e-01 2.07724570706181e+00 2.21356250218014e-02 
5.57192518080329e-01 2.06315299757028e+00 2.22250868874205e-02 
5.59719468275704e-01 2.04889619581826e+00 2.23099589475156e-02 
5.62246418471080e-01 2.03447743154744e+00 2.23901803323886e-02 
5.64773368666456e-01 2.01989894096793e+00 2.24656925616623e-02 
5.67300318861831e-01 2.00516306633254e+00 2.25364396250645e-02 
5.69827269057207e-01 1.99027225539884e+00 2.26023680615572e-02 
5.72354219252582e-01 1.97522906077808e+00 2.26634270366505e-02 
5.74881169447958e-01 1.96003613916975e+00 2.27195684177582e-02 
5.77408119643334e-01 1.94469625048090e+00 2.27707468474523e-02 
5.79935069838709e-01 1.92921225682975e+00 2.28169198144631e-02 
5.82462020034085e-01 1.91358712143275e+00 2.28580477222804e-02 
5.84988970229461e-01 1.89782390737499e+00 2.28940939552172e-02 
5.87515920424836e-01 1.88192577626368e+00 2.29250249417872e-02 
5.90042870620212e-01 1.86589598676478e+00 2.29508102152635e-02 
5.92569820815588e-01 1.84973789302299e+00 2.29714224712787e-02 
5.95096771010963e-01 1.83345494296543e+00 2.29868376223353e-02 
5.97623721206339e-01 1.81705067648978e+00 2.29970348490968e-02 
6.00150671401715e-01 1.80052872353754e+00 2.30019966483304e-02 
6.02677621597090e-01 1.78389280205349e+00 2.30017088773888e-02 
6.05204571792466e-01 1.76714671583256e+00 2.29961607951039e-02 
6.07731521987841e-01 1.75029435225548e+00 2.29853450989872e-02 
6.10258472183217e-01 1.73333967991492e+00 2.29692579586299e-02 
6.12785422378593e-01 1.71628674613389e+00 2.29478990452012e-02 
6.15312372573968e-01 1.69913967437835e+00 2.29212715569463e-02 
6.17839322769344e-01 1.68190266156651e+00 2.28893822406021e-02 
6.20366272964720e-01 1.66457997527692e+00 2.28522414086466e-02 
6.22893223160095e-01 1.64717595085836e+00 2.28098629523011e-02 
6.25420173355471e-01 1.62969498844401e+00 2.27622643502238e-02 
6.27947123550847e-01 1.61214154987323e+00 2.27094666728320e-02 
6.30474073746222e-01 1.59452015552398e+00 2.26514945821976e-02 
6.33001023941598e-01 1.57683538105942e+00 2.25883763274750e-02 
6.35527974136973e-01 1.55909185409220e+00 2.25201437358215e-02 
6.38054924332349e-01 1.54129425077026e+00 2.24468321987768e-02 
6.40581874527725e-01 1.52344729228817e+00 2.23684806540910e-02 
6.43108824723100e-01 1.50555574132794e+00 2.22851315629835e-02 
6.45635774918476e-01 1.48762439843381e+00 2.21968308828254e-02 
6.48162725113852e-01 1.46965809832530e+00 2.21036280352598e-02 
6.50689675309227e-01 1.45166170615314e+00 2.20055758697678e-02 
6.53216625504603e-01 1.43364011370295e+00 2.19027306227085e-02 
6.55743575699979e-01 1.41559823555126e+00 2.17951518718633e-02 
6.58270525895354e-01 1.39754100517911e+00 2.16829024865221e-02 
6.60797476090730e-01 1.37947337104821e+00 2.15660485731697e-02 
6.63324426286106e-01 1.36140029264483e+00 2.14446594168276e-02 
6.65851376481481e-01 1.34332673649688e+00 2.13188074181206e-02 
6.68378326676857e-01 1.32525767216931e+00 2.11885680261455e-02 
6.70905276872232e-01 1.30719806824357e+00 2.10540196672278e-02 
6.73432227067608e-01 1.28915288828643e+00 2.09152436696646e-02 
6.75959177262984e-01 1.27112708681385e+00 2.07723241845524e-02 
6.78486127458359e-01 1.25312560525550e+00 2.06253481028141e-02 
6.81013077653735e-01 1.23515336792556e+00 2.04744049685453e-02 
6.83540027849111e-01 1.21721527800551e+00 2.03195868888067e-02 
6.86066978044486e-01 1.19931621354448e+00 2.01609884399976e-02 
6.88593928239862e-01 1.18146102348298e+00 1.99987065709573e-02 
6.91120878435238e-01 1.16365452370555e+00 1.98328405029375e-02 
6.93647828630613e-01 1.14590149312801e+00 1.96634916266078e-02 
6.96174778825989e-01 1.12820666982487e+00 1.94907633962549e-02 
6.98701729021365e-01 1.11057474720242e+00 1.93147612213447e-02 
7.01228679216740e-01 1.09301037022306e+00 1.91326721807230e-02 
7.03755629412116e-01 1.07553172622975e+00 1.89447784523580e-02 
7.06282579607491e-01 1.05814298982098e+00 1.87543775511057e-02 
7.08809529802867e-01 1.04084807831617e+00 1.85616168494016e-02 
7.11336479998243e-01 1.02365084419809e+00 1.83666009249536e-02 
7.13863430193618e-01 1.00655507244921e+00 1.81694351727517e-02 
7.16390380388994e-01 9.89564477964019e-01 1.79702257034327e-02 
7.18917330584370e-01 9.72682703040584e-01 1.77690792411350e-02 
7.21444280779745e-01 9.55913314954561e-01 1.75661030210015e-02 
7.23971230975121e-01 9.39259803618511e-01 1.73614046864831e-02 
7.26498181170497e-01 9.22725579329476e-01 1.71550921866021e-02 
7.29025131365872e-01 9.06313970607476e-01 1.69472736733279e-02 
7.31552081561248e-01 8.90028222127499e-01 1.67380573992206e-02 
7.34079031756623e-01 8.73871492747370e-01 1.65275516154996e-02 
7.36605981951999e-01 8.57846853633746e-01 1.63158644706868e-02 
7.39132932147375e-01 8.41957286488300e-01 1.61031039099770e-02 
7.41659882342750e-01 8.26205681876009e-01 1.58893775754846e-02 
7.44186832538126e-01 8.10594837657265e-01 1.56747927075159e-02 
7.46713782733502e-01 7.95127457525380e-01 1.54594560470091e-02 
7.49240732928877e-01 7.79806149650856e-01 1.52434737392860e-02 
7.51767683124253e-01 7.64633425433616e-01 1.50269512392535e-02 
7.54294633319629e-01 7.49611698364235e-01 1.48099932181895e-02 
7.56821583515004e-01 7.34743282994983e-01 1.45927034722484e-02 
7.59348533710380e-01 7.20030394021344e-01 1.43751848328106e-02 
7.61875483905756e-01 7.05475145474492e-01 1.41575390787999e-02 
7.64402434101131e-01 6.91079550024985e-01 1.39398668510899e-02 
7.66929384296507e-01 6.76845518397802e-01 1.37222675691126e-02 
7.69456334491882e-01 6.62774858898631e-01 1.35048393497798e-02 
7.71983284687258e-01 6.48869277051142e-01 1.32876789288187e-02 
7.74510234882634e-01 6.35130375344823e-01 1.30708815846256e-02 
7.77037185078009e-01 6.21559653092735e-01 1.28545410647265e-02 
7.79564135273385e-01 6.08158506398410e-01 1.26387495149358e-02 
7.82091085468761e-01 5.94928228230915e-01 1.24235974112933e-02 
7.84618035664136e-01 5.81870008606957e-01 1.22091734948569e-02 
