Energy(eV)           EEDF(eV^-(3/2))      Anisotropy(eV^-(3/2))
1.31417451832476e-02 6.91228801531463e-02 4.82704703527591e-05 
3.94252355497427e-02 6.91196349040746e-02 1.18039270135471e-04 
6.57087259162378e-02 6.91160369768666e-02 2.01272745723464e-04 
9.19922162827330e-02 6.91127268479984e-02 2.95339445479642e-04 
1.18275706649228e-01 6.91101956318969e-02 3.94414728224454e-04 
1.44559197015723e-01 6.91082042565020e-02 4.89873994049150e-04 
1.70842687382218e-01 6.91067456019896e-02 5.86163312403616e-04 
1.97126177748714e-01 6.91056240208958e-02 6.81805964709723e-04 
2.23409668115209e-01 6.91046586625554e-02 7.77181311114901e-04 
2.49693158481704e-01 6.91036437116599e-02 8.69676183095960e-04 
2.75976648848199e-01 6.91023701066823e-02 9.58703234969430e-04 
3.02260139214694e-01 6.91005530419362e-02 1.04211255935326e-03 
3.28543629581189e-01 6.90980379779242e-02 1.12320321738853e-03 
3.54827119947684e-01 6.90946810962578e-02 1.20227631305436e-03 
3.81110610314179e-01 6.90903233265506e-02 1.27910639719696e-03 
4.07394100680675e-01 6.90848384409850e-02 1.35368433481287e-03 
4.33677591047170e-01 6.90781745439488e-02 1.42633249318633e-03 
4.59961081413665e-01 6.90702614905939e-02 1.49693638157520e-03 
4.86244571780160e-01 6.90610231835988e-02 1.56545558488305e-03 
5.12528062146655e-01 6.90503874042004e-02 1.63185414072999e-03 
5.38811552513150e-01 6.90383136956601e-02 1.69622380680233e-03 
5.65095042879645e-01 6.90247402448363e-02 1.75853701274677e-03 
5.91378533246141e-01 6.90096081658848e-02 1.81881325324016e-03 
6.17662023612636e-01 6.89928620730771e-02 1.87707520768948e-03 
6.43945513979131e-01 6.89744500095056e-02 1.93334726122047e-03 
6.70229004345626e-01 6.89543233752116e-02 1.98765514454010e-03 
6.96512494712121e-01 6.89324368532391e-02 2.04002320728845e-03 
7.22795985078616e-01 6.89087526845080e-02 2.09048030259732e-03 
7.49079475445111e-01 6.88832397735362e-02 2.13906042309008e-03 
7.75362965811606e-01 6.88558627397999e-02 2.18578891508858e-03 
8.01646456178102e-01 6.88265891463014e-02 2.23069573759656e-03 
8.27929946544597e-01 6.87953894213213e-02 2.27381134805227e-03 
8.54213436911092e-01 6.87622367797255e-02 2.31516662652278e-03 
8.80496927277587e-01 6.87271071439832e-02 2.35479280802658e-03 
9.06780417644082e-01 6.86899790650308e-02 2.39272142132158e-03 
9.33063908010577e-01 6.86508336431263e-02 2.42898423291358e-03 
9.59347398377073e-01 6.86096544488144e-02 2.46361319540986e-03 
9.85630888743568e-01 6.85664274441328e-02 2.49664039953780e-03 
1.01191437911006e+00 6.85211409041698e-02 2.52804070768285e-03 
1.03819786947656e+00 6.84740636433052e-02 2.55793840713911e-03 
1.06448135984305e+00 6.84252085406430e-02 2.58633098793151e-03 
1.09076485020955e+00 6.83745765779809e-02 2.61324903054655e-03 
1.11704834057604e+00 6.83221702458713e-02 2.63872475745070e-03 
1.14333183094254e+00 6.82679934832242e-02 2.66279029074934e-03 
1.16961532130903e+00 6.82120516177720e-02 2.68547762174283e-03 
1.19589881167553e+00 6.81543513074439e-02 2.70682724971082e-03 
1.22218230204202e+00 6.80948360842144e-02 2.72694897361022e-03 
1.24846579240852e+00 6.80333871652299e-02 2.74600816526806e-03 
1.27474928277501e+00 6.79700052467748e-02 2.76411647600889e-03 
1.30103277314151e+00 6.79046919655981e-02 2.78127363823504e-03 
1.32731626350800e+00 6.78375543111298e-02 2.79748055010294e-03 
1.35359975387450e+00 6.77686874440279e-02 2.81274575547283e-03 
1.37988324424099e+00 6.76980997996429e-02 2.82707077973669e-03 
1.40616673460749e+00 6.76258010695667e-02 2.84046084749119e-03 
1.43245022497398e+00 6.75518021354120e-02 2.85292329803356e-03 
1.45873371534048e+00 6.74761150039606e-02 2.86446734290875e-03 
1.48501720570698e+00 6.73987527437181e-02 2.87510384774573e-03 
1.51130069607347e+00 6.73197294229164e-02 2.88481382818388e-03 
1.53758418643997e+00 6.72394307384794e-02 2.89363086494338e-03 
1.56386767680646e+00 6.71579028017392e-02 2.90157887237884e-03 
1.59015116717296e+00 6.70751643638994e-02 2.90867426470170e-03 
1.61643465753945e+00 6.69912345980384e-02 2.91493359907095e-03 
1.64271814790595e+00 6.69061330541381e-02 2.92037415486098e-03 
1.66900163827244e+00 6.68198796161365e-02 2.92501382488993e-03 
1.69528512863894e+00 6.67324944609306e-02 2.92887101652611e-03 
1.72156861900543e+00 6.66439980192590e-02 2.93196456170646e-03 
1.74785210937193e+00 6.65544109384000e-02 2.93431363503498e-03 
1.77413559973842e+00 6.64637540466260e-02 2.93593767920797e-03 
1.80041909010492e+00 6.63720483193556e-02 2.93685633709495e-03 
1.82670258047141e+00 6.62793148469512e-02 2.93708938989420e-03 
1.85298607083791e+00 6.61855748041098e-02 2.93665670082196e-03 
1.87926956120440e+00 6.60908494207985e-02 2.93557816385869e-03 
1.90555305157090e+00 6.59951599546881e-02 2.93389612906440e-03 
1.93183654193739e+00 6.58981674450017e-02 2.93164291469123e-03 
1.95812003230389e+00 6.57997475675068e-02 2.92881524831833e-03 
1.98440352267038e+00 6.56999225534862e-02 2.92542232344975e-03 
2.01068701303688e+00 6.55987148490439e-02 2.92148354432037e-03 
2.03697050340337e+00 6.54961470811479e-02 2.91701812343966e-03 
2.06325399376987e+00 6.53922420250982e-02 2.91204505582407e-03 
2.08953748413636e+00 6.52870225734091e-02 2.90657999876523e-03 
2.11582097450286e+00 6.51805628665282e-02 2.90061294433860e-03 
2.14210446486935e+00 6.50733355644661e-02 2.89415352316364e-03 
2.16838795523585e+00 6.49653615653355e-02 2.88725835258888e-03 
2.19467144560234e+00 6.48566615553616e-02 2.87995102484350e-03 
2.22095493596884e+00 6.47471574277142e-02 2.87228080603848e-03 
2.24723842633533e+00 6.46366364077100e-02 2.86429474292192e-03 
2.27352191670183e+00 6.45251178713235e-02 2.85600498354922e-03 
2.29980540706832e+00 6.44126209077183e-02 2.84742523742439e-03 
2.32608889743482e+00 6.42991646403156e-02 2.83856491551781e-03 
2.35237238780131e+00 6.41847682004918e-02 2.82943363490746e-03 
2.37865587816781e+00 6.40694507026332e-02 2.82004117453602e-03 
2.40493936853431e+00 6.39532312205214e-02 2.81039743459553e-03 
2.43122285890080e+00 6.38361287650180e-02 2.80051239928595e-03 
2.45750634926730e+00 6.37181622630197e-02 2.79039610271269e-03 
2.48378983963379e+00 6.35993505376522e-02 2.78005859770671e-03 
2.51007333000029e+00 6.34797122896703e-02 2.76952918164661e-03 
2.53635682036678e+00 6.33589840564175e-02 2.75883287635914e-03 
2.56264031073328e+00 6.32371492104864e-02 2.74795033251454e-03 
2.58892380109977e+00 6.31142284294472e-02 2.73688728252685e-03 
2.61520729146627e+00 6.29902422644820e-02 2.72565347743225e-03 
2.64149078183276e+00 6.28652111229238e-02 2.71425855086868e-03 
2.66777427219926e+00 6.27391552518760e-02 2.70271200343284e-03 
2.69405776256575e+00 6.26120947228889e-02 2.69102318868591e-03 
2.72034125293225e+00 6.24840494176681e-02 2.67920130069350e-03 
2.74662474329874e+00 6.23550390147892e-02 2.66725536299049e-03 
2.77290823366524e+00 6.22250829773918e-02 2.65519421887397e-03 
2.79919172403173e+00 6.20942005418248e-02 2.64302081306521e-03 
2.82547521439823e+00 6.19624823448441e-02 2.63073376664099e-03 
2.85175870476472e+00 6.18300271678708e-02 2.61834643748393e-03 
2.87804219513122e+00 6.16968521359227e-02 2.60587695238148e-03 
2.90432568549771e+00 6.15629740977302e-02 2.59333315652290e-03 
2.93060917586421e+00 6.14284096204602e-02 2.58072267954167e-03 
2.95689266623070e+00 6.12931749851592e-02 2.56805293273573e-03 
2.98317615659720e+00 6.11572861828822e-02 2.55533110700020e-03 
3.00945964696369e+00 6.10207589114819e-02 2.54255287452464e-03 
3.03574313733019e+00 6.08837350761958e-02 2.52971722664386e-03 
3.06202662769668e+00 6.07462490696393e-02 2.51684663235876e-03 
3.08831011806318e+00 6.06083142715782e-02 2.50395016677891e-03 
3.11459360842967e+00 6.04699437582126e-02 2.49103391708968e-03 
3.14087709879617e+00 6.03311503031818e-02 2.47810374969857e-03 
3.16716058916266e+00 6.01919463790019e-02 2.46516531174518e-03 
3.19344407952916e+00 6.00523441589121e-02 2.45222403295322e-03 
3.21972756989565e+00 5.99123555191067e-02 2.43929019159550e-03 
3.24601106026215e+00 5.97719914593360e-02 2.42637998815777e-03 
3.27229455062864e+00 5.96312619585281e-02 2.41350492672047e-03 
3.29857804099514e+00 5.94901766081322e-02 2.40066884453793e-03 
3.32486153136163e+00 5.93487448388373e-02 2.38787360108785e-03 
3.35114502172813e+00 5.92069759143438e-02 2.37512109708276e-03 
3.37742851209463e+00 5.90648789258441e-02 2.36241326140694e-03 
3.40371200246112e+00 5.89224627871786e-02 2.34975203917965e-03 
3.42999549282762e+00 5.87797362306352e-02 2.33713938087586e-03 
3.45627898319411e+00 5.86367078033615e-02 2.32457723243749e-03 
3.48256247356061e+00 5.84933858643578e-02 2.31206752631713e-03 
3.50884596392710e+00 5.83497785820214e-02 2.29961217339332e-03 
3.53512945429360e+00 5.82058939322121e-02 2.28721306296145e-03 
3.56141294466009e+00 5.80617396958968e-02 2.27487207200842e-03 
3.58769643502659e+00 5.79173234561375e-02 2.26259079653169e-03 
3.61397992539308e+00 5.77726546974752e-02 2.25036318569782e-03 
3.64026341575958e+00 5.76278040050159e-02 2.23818867979824e-03 
3.66654690612607e+00 5.74827776968477e-02 2.22607925485107e-03 
3.69283039649257e+00 5.73375818994440e-02 2.21403654285307e-03 
3.71911388685906e+00 5.71922225488982e-02 2.20206211238892e-03 
3.74539737722556e+00 5.70467053924541e-02 2.19015746639503e-03 
3.77168086759205e+00 5.69010359903102e-02 2.17832404034010e-03 
3.79796435795855e+00 5.67552197176763e-02 2.16656320079039e-03 
3.82424784832504e+00 5.66092617670604e-02 2.15487624432856e-03 
3.85053133869154e+00 5.64631671507681e-02 2.14326439679665e-03 
3.87681482905803e+00 5.63169407035939e-02 2.13172881283671e-03 
3.90309831942453e+00 5.61705870856868e-02 2.12027057570139e-03 
3.92938180979102e+00 5.60241107855749e-02 2.10889069730974e-03 
3.95566530015752e+00 5.58775161233293e-02 2.09759011852517e-03 
3.98194879052401e+00 5.57308072538565e-02 2.08636970963545e-03 
4.00823228089051e+00 5.55839881703005e-02 2.07524325802109e-03 
4.03451577125700e+00 5.54369738331767e-02 2.06421778223431e-03 
4.06079926162350e+00 5.52897484957140e-02 2.05327855491133e-03 
4.08708275198999e+00 5.51423167645422e-02 2.04242245443749e-03 
4.11336624235649e+00 5.49946830863485e-02 2.03165000420632e-03 
4.13964973272298e+00 5.48468517515653e-02 2.02096166306441e-03 
4.16593322308948e+00 5.46988268981157e-02 2.01035782669107e-03 
4.19221671345597e+00 5.45506125152092e-02 1.99983882904789e-03 
4.21850020382247e+00 5.44022124471767e-02 1.98940494388579e-03 
4.24478369418896e+00 5.42536303973374e-02 1.97905638629861e-03 
4.27106718455546e+00 5.41048699318906e-02 1.96879331431228e-03 
4.29735067492195e+00 5.39559344838249e-02 1.95861583050170e-03 
4.32363416528845e+00 5.38068273568383e-02 1.94852398362445e-03 
4.34991765565495e+00 5.36575517292644e-02 1.93851776603056e-03 
4.37620114602144e+00 5.35081106586508e-02 1.92859713196537e-03 
4.40248463638794e+00 5.33585070831181e-02 1.91876203447934e-03 
4.42876812675443e+00 5.32087438203636e-02 1.90901290569951e-03 
4.45505161712093e+00 5.30588234936318e-02 1.89935049754622e-03 
4.48133510748742e+00 5.29087485535691e-02 1.88977489738966e-03 
4.50761859785392e+00 5.27585213590768e-02 1.88026708623338e-03 
4.53390208822041e+00 5.26082492768004e-02 1.87081847695205e-03 
4.56018557858691e+00 5.24579613447897e-02 1.86144943939497e-03 
4.58646906895340e+00 5.23076584390763e-02 1.85216529798515e-03 
4.61275255931990e+00 5.21573413665812e-02 1.84296559724480e-03 
4.63903604968639e+00 5.20070108674765e-02 1.83384987211152e-03 
4.66531954005289e+00 5.18566676158983e-02 1.82481764756841e-03 
4.69160303041938e+00 5.17063122224094e-02 1.81586843755353e-03 
4.71788652078588e+00 5.15559452349334e-02 1.80700174489690e-03 
4.74417001115237e+00 5.14055671412738e-02 1.79821706053534e-03 
4.77045350151887e+00 5.12551783702253e-02 1.78951386369008e-03 
4.79673699188536e+00 5.11047792941119e-02 1.78089162134833e-03 
4.82302048225186e+00 5.09543702300340e-02 1.77234978863178e-03 
4.84930397261835e+00 5.08039514423947e-02 1.76388780850258e-03 
4.87558746298485e+00 5.06535231442459e-02 1.75550511227885e-03 
4.90187095335134e+00 5.05030854997764e-02 1.74720111952830e-03 
4.92815444371784e+00 5.03526386257245e-02 1.73897523869488e-03 
4.95443793408433e+00 5.02021825938058e-02 1.73082686714577e-03 
4.98072142445083e+00 5.00517174321640e-02 1.72275539187630e-03 
5.00700491481732e+00 4.99012431277209e-02 1.71477953510683e-03 
5.03328840518382e+00 4.97506658477968e-02 1.70690678522833e-03 
5.05957189555031e+00 4.95999578616045e-02 1.69911539203569e-03 
5.08585538591681e+00 4.94491200878332e-02 1.69139806882501e-03 
5.11213887628330e+00 4.92981533927644e-02 1.68375419560690e-03 
5.13842236664980e+00 4.91470585923892e-02 1.67618313893554e-03 
5.16470585701629e+00 4.89958364551053e-02 1.66868425285068e-03 
5.19098934738279e+00 4.88444877037286e-02 1.66125688018714e-03 
5.21727283774928e+00 4.86930130180114e-02 1.65390035346032e-03 
5.24355632811578e+00 4.85414130365460e-02 1.64661399607405e-03 
5.26983981848228e+00 4.83896883591098e-02 1.63939712314703e-03 
5.29612330884877e+00 4.82378395484600e-02 1.63224904262094e-03 
5.32240679921526e+00 4.80858671325120e-02 1.62516905602408e-03 
5.34869028958176e+00 4.79337716060259e-02 1.61815645948190e-03 
5.37497377994826e+00 4.77815534326261e-02 1.61121054441925e-03 
5.40125727031475e+00 4.76292130463802e-02 1.60433059847565e-03 
5.42754076068125e+00 4.74767508536683e-02 1.59751590614516e-03 
5.45382425104774e+00 4.73241672346574e-02 1.59076574960141e-03 
5.48010774141424e+00 4.71714625450274e-02 1.58407940927621e-03 
5.50639123178073e+00 4.70186371173456e-02 1.57745616459818e-03 
5.53267472214723e+00 4.68656912626572e-02 1.57089529467102e-03 
5.55895821251372e+00 4.67126252717332e-02 1.56439607953270e-03 
5.58524170288022e+00 4.65594394164156e-02 1.55795780059771e-03 
5.61152519324671e+00 4.64061339507738e-02 1.55157974074812e-03 
5.63780868361321e+00 4.62527091124252e-02 1.54526118471165e-03 
5.66409217397970e+00 4.60991651236094e-02 1.53900141953685e-03 
5.69037566434620e+00 4.59455021924053e-02 1.53279973492937e-03 
5.71665915471269e+00 4.57917205137263e-02 1.52665542367312e-03 
5.74294264507919e+00 4.56378202704400e-02 1.52056778192584e-03 
5.76922613544568e+00 4.54838016342887e-02 1.51453610959009e-03 
5.79550962581218e+00 4.53296647669173e-02 1.50855971056969e-03 
5.82179311617867e+00 4.51754098207234e-02 1.50263789309248e-03 
5.84807660654517e+00 4.50210369397996e-02 1.49676996993078e-03 
5.87436009691166e+00 4.48665462607173e-02 1.49095525867917e-03 
5.90064358727816e+00 4.47119379133897e-02 1.48519308194045e-03 
5.92692707764465e+00 4.45572120217932e-02 1.47948276756282e-03 
5.95321056801115e+00 4.44023687047573e-02 1.47382364879386e-03 
5.97949405837764e+00 4.42474080766281e-02 1.46821506447852e-03 
6.00577754874414e+00 4.40923302479900e-02 1.46266624586765e-03 
6.03206103911063e+00 4.39370970294908e-02 1.45718097701821e-03 
6.05834452947713e+00 4.37816939224567e-02 1.45174832431354e-03 
6.08462801984362e+00 4.36261213801672e-02 1.44636355402832e-03 
6.11091151021012e+00 4.34703798504164e-02 1.44102602900428e-03 
6.13719500057661e+00 4.33144697761145e-02 1.43573511847971e-03 
6.16347849094311e+00 4.31583915959248e-02 1.43049019812995e-03 
6.18976198130960e+00 4.30021457448241e-02 1.42529065013284e-03 
6.21604547167610e+00 4.28457326546920e-02 1.42013586319250e-03 
6.24232896204259e+00 4.26891527548319e-02 1.41502523258490e-03 
6.26861245240909e+00 4.25324064725169e-02 1.40995816016550e-03 
6.29489594277559e+00 4.23754942334756e-02 1.40493405439626e-03 
6.32117943314208e+00 4.22184164623975e-02 1.39995233034030e-03 
6.34746292350858e+00 4.20611735833860e-02 1.39501240967201e-03 
6.37374641387507e+00 4.19037660204278e-02 1.39011372065947e-03 
6.40002990424157e+00 4.17461941978153e-02 1.38525569816099e-03 
6.42631339460806e+00 4.15884585405833e-02 1.38043778359728e-03 
6.45259688497456e+00 4.14305594749035e-02 1.37565942493487e-03 
6.47888037534105e+00 4.12724974284910e-02 1.37092007664847e-03 
6.50516386570755e+00 4.11142728309741e-02 1.36621919969444e-03 
6.53144735607404e+00 4.09558861142732e-02 1.36155626146574e-03 
6.55773084644054e+00 4.07973377129476e-02 1.35693073575490e-03 
6.58401433680703e+00 4.06386280645497e-02 1.35234210270493e-03 
6.61029782717353e+00 4.04797576099510e-02 1.34778984876761e-03 
6.63658131754002e+00 4.03207267936727e-02 1.34327346664568e-03 
6.66286480790652e+00 4.01615360641928e-02 1.33879245524170e-03 
6.68914829827301e+00 4.00021858742574e-02 1.33434631959580e-03 
6.71543178863951e+00 3.98426766811701e-02 1.32993457082951e-03 
6.74171527900600e+00 3.96830089470850e-02 1.32555672608041e-03 
6.76799876937250e+00 3.95231831392808e-02 1.32121230844175e-03 
6.79428225973899e+00 3.93631997304375e-02 1.31690084689389e-03 
6.82056575010549e+00 3.92030591988962e-02 1.31262187624116e-03 
6.84684924047198e+00 3.90427620289209e-02 1.30837493704118e-03 
6.87313273083848e+00 3.88823087109457e-02 1.30415957553858e-03 
6.89941622120497e+00 3.87216997418229e-02 1.29997534359393e-03 
6.92569971157147e+00 3.85609356250588e-02 1.29582179861537e-03 
6.95198320193796e+00 3.84000168710499e-02 1.29169850348636e-03 
6.97826669230446e+00 3.82389439973079e-02 1.28760502649644e-03 
7.00455018267095e+00 3.80777175286847e-02 1.28359737377159e-03 
7.03083367303745e+00 3.79161455726614e-02 1.27970415341206e-03 
7.05711716340394e+00 3.77541364954558e-02 1.27586693914515e-03 
7.08340065377044e+00 3.75916923750212e-02 1.27205681641085e-03 
7.10968414413693e+00 3.74288152872301e-02 1.26827334252181e-03 
7.13596763450343e+00 3.72655073065245e-02 1.26451607967258e-03 
7.16225112486992e+00 3.71017705065601e-02 1.26078459487162e-03 
7.18853461523642e+00 3.69376069608388e-02 1.25707845987554e-03 
7.21481810560292e+00 3.67730187433357e-02 1.25339725112123e-03 
7.24110159596941e+00 3.66080079291148e-02 1.24974054966063e-03 
7.26738508633591e+00 3.64425765949399e-02 1.24610794109476e-03 
7.29366857670240e+00 3.62767268198742e-02 1.24249901550932e-03 
7.31995206706890e+00 3.61104606858754e-02 1.23891336740960e-03 
7.34623555743539e+00 3.59437802783808e-02 1.23535059565746e-03 
7.37251904780189e+00 3.57766876868873e-02 1.23181030340791e-03 
7.39880253816838e+00 3.56091850055225e-02 1.22829209804738e-03 
7.42508602853488e+00 3.54412743336103e-02 1.22479559113185e-03 
7.45136951890137e+00 3.52729577762283e-02 1.22132039832669e-03 
7.47765300926787e+00 3.51042374447603e-02 1.21786613934645e-03 
7.50393649963436e+00 3.49351154574406e-02 1.21443243789655e-03 
7.53021999000086e+00 3.47655939398934e-02 1.21101892161486e-03 
7.55650348036735e+00 3.45956750256647e-02 1.20762522201504e-03 
7.58278697073385e+00 3.44253608567493e-02 1.20425097443010e-03 
7.60907046110034e+00 3.42546535841107e-02 1.20089581795742e-03 
7.63535395146684e+00 3.40835553681962e-02 1.19755939540462e-03 
7.66163744183333e+00 3.39120683794451e-02 1.19424135323603e-03 
7.68792093219983e+00 3.37401947987922e-02 1.19094134152041e-03 
7.71420442256632e+00 3.35679368181652e-02 1.18765901387970e-03 
7.74048791293282e+00 3.33952966409765e-02 1.18439402743862e-03 
7.76677140329931e+00 3.32222764826098e-02 1.18114604277523e-03 
7.79305489366581e+00 3.30488785709013e-02 1.17791472387229e-03 
7.81933838403230e+00 3.28751051466159e-02 1.17469973807020e-03 
7.84562187439880e+00 3.27009584639170e-02 1.17150075602001e-03 
7.87190536476529e+00 3.25264407908331e-02 1.16831745163798e-03 
7.89818885513179e+00 3.23515544097171e-02 1.16514950206095e-03 
7.92447234549828e+00 3.21763016177027e-02 1.16199658760273e-03 
7.95075583586478e+00 3.20006847271537e-02 1.15885839171131e-03 
7.97703932623127e+00 3.18247060661101e-02 1.15573460092686e-03 
8.00332281659777e+00 3.16483679787283e-02 1.15258744708251e-03 
8.02960630696426e+00 3.14717960078102e-02 1.14939394296077e-03 
8.05588979733076e+00 3.12950651792438e-02 1.14619224881142e-03 
8.08217328769725e+00 3.11181768604999e-02 1.14300513088077e-03 
8.10845677806375e+00 3.09411324359656e-02 1.13983232013135e-03 
8.13474026843024e+00 3.07639333071093e-02 1.13667355039154e-03 
8.16102375879674e+00 3.05865808926430e-02 1.13352855831634e-03 
