Energy(eV)           EEDF(eV^-(3/2))      Anisotropy(eV^-(3/2))
8.06789154265112e-03 8.67643265898707e-02 1.48914235600525e-06 
2.42036746279533e-02 8.67639179973428e-02 3.25354942765237e-06 
4.03394577132556e-02 8.67633591683848e-02 5.92330663173515e-06 
5.64752407985578e-02 8.67626983099096e-02 8.59716093443483e-06 
7.26110238838600e-02 8.67620566249347e-02 1.10326151384960e-05 
8.87468069691623e-02 8.67614851694710e-02 1.31971312354551e-05 
1.04882590054465e-01 8.67610258144456e-02 1.52128610683302e-05 
1.21018373139767e-01 8.67606498476201e-02 1.71177784922173e-05 
1.37154156225069e-01 8.67603379543814e-02 1.88683611544612e-05 
1.53289939310371e-01 8.67600867953637e-02 2.04787639649667e-05 
1.69425722395673e-01 8.67598865527068e-02 2.19778737347954e-05 
1.85561505480976e-01 8.67597229003927e-02 2.33626214858002e-05 
2.01697288566278e-01 8.67595862369990e-02 2.46678673562211e-05 
2.17833071651580e-01 8.67594606343392e-02 2.58835109928225e-05 
2.33968854736882e-01 8.67593344129882e-02 2.69656916828251e-05 
2.50104637822185e-01 8.67592085732171e-02 2.79924015323217e-05 
2.66240420907487e-01 8.67590667542598e-02 2.89705978955194e-05 
2.82376203992789e-01 8.67588912593592e-02 2.98589831365113e-05 
2.98511987078091e-01 8.67586808316506e-02 3.06798155715584e-05 
3.14647770163394e-01 8.67584302517814e-02 3.14489087839783e-05 
3.30783553248696e-01 8.67581321730479e-02 3.21598891635740e-05 
3.46919336333998e-01 8.67577853174002e-02 3.28183259575082e-05 
3.63055119419300e-01 8.67573863482523e-02 3.34413075706060e-05 
3.79190902504602e-01 8.67569290708670e-02 3.40269005386729e-05 
3.95326685589905e-01 8.67564122981165e-02 3.45703752777551e-05 
4.11462468675207e-01 8.67558355896708e-02 3.50702375020418e-05 
4.27598251760509e-01 8.67552004189128e-02 3.55331043829439e-05 
4.43734034845811e-01 8.67545060056085e-02 3.59678921732517e-05 
4.59869817931114e-01 8.67537516112093e-02 3.63787037125453e-05 
4.76005601016416e-01 8.67529365195935e-02 3.67694240760195e-05 
4.92141384101718e-01 8.67520600193671e-02 3.71436611532656e-05 
5.08277167187020e-01 8.67511214097781e-02 3.75001343749899e-05 
5.24412950272322e-01 8.67501216592792e-02 3.78423859273668e-05 
5.40548733357625e-01 8.67490600475683e-02 3.81774219823122e-05 
5.56684516442927e-01 8.67479358031727e-02 3.85081243885016e-05 
5.72820299528229e-01 8.67467480930097e-02 3.88371787793019e-05 
5.88956082613531e-01 8.67454960130728e-02 3.91670829801683e-05 
6.05091865698834e-01 8.67441785801707e-02 3.95001555236857e-05 
6.21227648784136e-01 8.67427947246453e-02 3.98385441872204e-05 
6.37363431869438e-01 8.67413432839973e-02 4.01842344948658e-05 
6.53499214954740e-01 8.67398229973512e-02 4.05390581314410e-05 
6.69634998040043e-01 8.67382325006935e-02 4.09047012209736e-05 
6.85770781125345e-01 8.67365703228197e-02 4.12827124354763e-05 
7.01906564210647e-01 8.67348348819304e-02 4.16731832839807e-05 
7.18042347295949e-01 8.67330249371538e-02 4.20765945156558e-05 
7.34178130381252e-01 8.67311389832539e-02 4.24953311689324e-05 
7.50313913466554e-01 8.67291751240330e-02 4.29312218306410e-05 
7.66449696551856e-01 8.67271313459559e-02 4.33852419128551e-05 
7.82585479637158e-01 8.67250055172322e-02 4.38582731594815e-05 
7.98721262722460e-01 8.67227953872395e-02 4.43511099986878e-05 
8.14857045807763e-01 8.67204985862514e-02 4.48644656099625e-05 
8.30992828893065e-01 8.67181126254313e-02 4.53989777030547e-05 
8.47128611978367e-01 8.67156348970603e-02 4.59552140101313e-05 
8.63264395063669e-01 8.67130626749681e-02 4.65336774928401e-05 
8.79400178148972e-01 8.67103931151384e-02 4.71348112693777e-05 
8.95535961234274e-01 8.67076232564641e-02 4.77590032680528e-05 
9.11671744319576e-01 8.67047500216278e-02 4.84065906107055e-05 
9.27807527404878e-01 8.67017702180874e-02 4.90778637370445e-05 
9.43943310490181e-01 8.66986805391464e-02 4.97730702771711e-05 
9.60079093575483e-01 8.66954775650938e-02 5.04924186767052e-05 
9.76214876660785e-01 8.66921577643962e-02 5.12360815894453e-05 
9.92350659746087e-01 8.66887174949293e-02 5.20026419268497e-05 
1.00848644283139e+00 8.66851535724878e-02 5.27329444110081e-05 
1.02462222591669e+00 8.66814839253775e-02 5.34291104798695e-05 
1.04075800900199e+00 8.66777055572779e-02 5.41462210827327e-05 
1.05689379208730e+00 8.66738153984434e-02 5.48843157099749e-05 
1.07302957517260e+00 8.66698103069854e-02 5.56434141690169e-05 
1.08916535825790e+00 8.66656870701139e-02 5.64235186090222e-05 
1.10530114134320e+00 8.66614424053380e-02 5.72246153866718e-05 
1.12143692442851e+00 8.66570729616235e-02 5.80466767838672e-05 
1.13757270751381e+00 8.66525753205071e-02 5.88896625855353e-05 
1.15370849059911e+00 8.66479459971659e-02 5.97535215249584e-05 
1.16984427368441e+00 8.66431814414431e-02 6.06381926067947e-05 
1.18598005676971e+00 8.66382780388303e-02 6.15436063155422e-05 
1.20211583985502e+00 8.66332321114057e-02 6.24970249127762e-05 
1.21825162294032e+00 8.66280291657105e-02 6.35143209691666e-05 
1.23438740602562e+00 8.66226585345280e-02 6.45695749011482e-05 
1.25052318911092e+00 8.66171156266884e-02 6.56475034057214e-05 
1.26665897219623e+00 8.66113957733248e-02 6.67480000830562e-05 
1.28279475528153e+00 8.66054942287159e-02 6.78709559196100e-05 
1.29893053836683e+00 8.65994061709877e-02 6.89959825542274e-05 
1.31506632145213e+00 8.65931350952756e-02 7.00964196838033e-05 
1.33120210453743e+00 8.65866875491407e-02 7.11914871631084e-05 
1.34733788762274e+00 8.65800592845946e-02 7.23063284953324e-05 
1.36347367070804e+00 8.65732459977895e-02 7.34408328036717e-05 
1.37960945379334e+00 8.65662433295270e-02 7.45948891658085e-05 
1.39574523687864e+00 8.65590468657456e-02 7.57683868145003e-05 
1.41188101996395e+00 8.65516521379908e-02 7.69612153146561e-05 
1.42801680304925e+00 8.65440546238670e-02 7.81732647192503e-05 
1.44415258613455e+00 8.65362497474726e-02 7.94044257051029e-05 
1.46028836921985e+00 8.65282328798199e-02 8.06545896903594e-05 
1.47642415230515e+00 8.65199993392393e-02 8.19236489347979e-05 
1.49255993539046e+00 8.65115443917707e-02 8.32073367023521e-05 
1.50869571847576e+00 8.65028651378856e-02 8.44019018555143e-05 
1.52483150156106e+00 8.64940041862971e-02 8.55117534005041e-05 
1.54096728464636e+00 8.64849583027372e-02 8.66356436905516e-05 
1.55710306773167e+00 8.64757242294980e-02 8.77734774804106e-05 
1.57323885081697e+00 8.64662986855850e-02 8.89251609628893e-05 
1.58937463390227e+00 8.64566783668621e-02 9.00906017857070e-05 
1.60551041698757e+00 8.64468599461893e-02 9.12697090607148e-05 
1.62164620007287e+00 8.64368400735538e-02 9.24623933637149e-05 
1.63778198315818e+00 8.64266153761967e-02 9.36685667277425e-05 
1.65391776624348e+00 8.64161824587340e-02 9.48881426302020e-05 
1.67005354932878e+00 8.64055379032742e-02 9.61210359753407e-05 
1.68618933241408e+00 8.63946782695315e-02 9.73671630701963e-05 
1.70232511549939e+00 8.63836000949381e-02 9.86264415972141e-05 
1.71846089858469e+00 8.63722998947524e-02 9.98987905841200e-05 
1.73459668166999e+00 8.63607741621665e-02 1.01184130369312e-04 
1.75073246475529e+00 8.63490193684127e-02 1.02482382565206e-04 
1.76686824784059e+00 8.63370319628684e-02 1.03793470018612e-04 
1.78300403092590e+00 8.63248083731617e-02 1.05117316770186e-04 
1.79913981401120e+00 8.63123450052763e-02 1.06453848012349e-04 
1.81527559709650e+00 8.62996382436574e-02 1.07802990045444e-04 
1.83141138018180e+00 8.62866844513182e-02 1.09164670232926e-04 
1.84754716326711e+00 8.62734799699472e-02 1.10538816956308e-04 
1.86368294635241e+00 8.62600211200173e-02 1.11925359570278e-04 
1.87981872943771e+00 8.62463042008962e-02 1.13324228356212e-04 
1.89595451252301e+00 8.62323254909586e-02 1.14777292344886e-04 
1.91209029560831e+00 8.62180595567274e-02 1.16411819453220e-04 
1.92822607869362e+00 8.62034356806377e-02 1.18186347243140e-04 
1.94436186177892e+00 8.61884474492109e-02 1.19978323411108e-04 
1.96049764486422e+00 8.61730883968424e-02 1.21787665763698e-04 
1.97663342794952e+00 8.61573520061789e-02 1.23614292192366e-04 
1.99276921103483e+00 8.61412317085033e-02 1.25458120618487e-04 
2.00890499412013e+00 8.61247208841256e-02 1.27319068939608e-04 
2.02504077720543e+00 8.61078128627811e-02 1.29197054975183e-04 
2.04117656029073e+00 8.60905009240367e-02 1.31091996414244e-04 
2.05731234337603e+00 8.60727782977034e-02 1.33003810763212e-04 
2.07344812646134e+00 8.60546381642582e-02 1.34932415294517e-04 
2.08958390954664e+00 8.60360736552733e-02 1.36877726996795e-04 
2.10571969263194e+00 8.60170778538536e-02 1.38680494354190e-04 
2.12185547571724e+00 8.59977349616255e-02 1.40314497162827e-04 
2.13799125880255e+00 8.59780561850176e-02 1.41933305714883e-04 
2.15412704188785e+00 8.59580373938510e-02 1.43563240411590e-04 
2.17026282497315e+00 8.59376744401816e-02 1.45204238580894e-04 
2.18639860805845e+00 8.59169631584795e-02 1.46856237679334e-04 
2.20253439114375e+00 8.58958993658116e-02 1.48604262943641e-04 
2.21867017422906e+00 8.58744286434500e-02 1.50492567593844e-04 
2.23480595731436e+00 8.58525189563968e-02 1.52438408882994e-04 
2.25094174039966e+00 8.58301641181435e-02 1.54398456514708e-04 
2.26707752348496e+00 8.58073579083549e-02 1.56372632023287e-04 
2.28321330657027e+00 8.57840940732747e-02 1.58360856425505e-04 
2.29934908965557e+00 8.57603663261390e-02 1.60363050185518e-04 
2.31548487274087e+00 8.57361683475979e-02 1.62379133179367e-04 
2.33162065582617e+00 8.57114937861452e-02 1.64409024662119e-04 
2.34775643891147e+00 8.56863362585566e-02 1.66452643235323e-04 
2.36389222199678e+00 8.56606893503358e-02 1.68509906813613e-04 
2.38002800508208e+00 8.56345466161701e-02 1.70580732593342e-04 
2.39616378816738e+00 8.56079015803929e-02 1.72665037022111e-04 
2.41229957125268e+00 8.55807477374567e-02 1.74762735767664e-04 
2.42843535433799e+00 8.55530785524138e-02 1.76873743688217e-04 
2.44457113742329e+00 8.55248874614062e-02 1.78997974803360e-04 
2.46070692050859e+00 8.54961678721646e-02 1.81135342265517e-04 
2.47684270359389e+00 8.54669131645161e-02 1.83285758331873e-04 
2.49297848667919e+00 8.54371166909013e-02 1.85458578779125e-04 
2.50911426976450e+00 8.54067655265364e-02 1.87790762426939e-04 
2.52525005284980e+00 8.53757615107971e-02 1.90271817019704e-04 
2.54138583593510e+00 8.53440954422041e-02 1.92768821121233e-04 
2.55752161902040e+00 8.53117580752032e-02 1.95281656443001e-04 
2.57365740210571e+00 8.52787401210865e-02 1.97810202904619e-04 
2.58979318519101e+00 8.52450322489297e-02 2.00354338598772e-04 
2.60592896827631e+00 8.52106250865486e-02 2.02913939756244e-04 
2.62206475136161e+00 8.51755092214735e-02 2.05488880710866e-04 
2.63820053444691e+00 8.51396752019415e-02 2.08079033865986e-04 
2.65433631753222e+00 8.51031135379080e-02 2.10684269660920e-04 
2.67047210061752e+00 8.50658147020767e-02 2.13304456536861e-04 
2.68660788370282e+00 8.50277691309490e-02 2.15939460904986e-04 
2.70274366678812e+00 8.49889672258916e-02 2.18589147114265e-04 
2.71887944987343e+00 8.49493993542244e-02 2.21253377418965e-04 
2.73501523295873e+00 8.49090558503274e-02 2.23932011947530e-04 
2.75115101604403e+00 8.48679270167677e-02 2.26624908671907e-04 
2.76728679912933e+00 8.48260031254453e-02 2.29331923377066e-04 
2.78342258221464e+00 8.47832744187604e-02 2.32052909630624e-04 
2.79955836529994e+00 8.47397311107995e-02 2.34749441063439e-04 
2.81569414838524e+00 8.46953924236803e-02 2.37378815780462e-04 
2.83182993147054e+00 8.46502819514844e-02 2.39978472355827e-04 
2.84796571455584e+00 8.46043912313183e-02 2.42590026626692e-04 
2.86410149764115e+00 8.45577117839055e-02 2.45213339525443e-04 
2.88023728072645e+00 8.45102351146112e-02 2.47848270073813e-04 
2.89637306381175e+00 8.44619527144825e-02 2.50494675360812e-04 
2.91250884689705e+00 8.44128560613050e-02 2.53152410521691e-04 
2.92864462998235e+00 8.43629366206736e-02 2.55821328717983e-04 
2.94478041306766e+00 8.43121858470805e-02 2.58501281116586e-04 
2.96091619615296e+00 8.42605951850185e-02 2.61192116869939e-04 
2.97705197923826e+00 8.42081560700995e-02 2.63893683096815e-04 
2.99318776232356e+00 8.41548599301905e-02 2.66599147577250e-04 
3.00932354540887e+00 8.41007036271648e-02 2.69228939933085e-04 
3.02545932849417e+00 8.40457438052146e-02 2.71790022295051e-04 
3.04159511157947e+00 8.39899732416179e-02 2.74359856123926e-04 
3.05773089466477e+00 8.39333847145667e-02 2.76938299459491e-04 
3.07386667775007e+00 8.38759710041100e-02 2.79525208663633e-04 
3.09000246083538e+00 8.38177248931091e-02 2.82120438407622e-04 
3.10613824392068e+00 8.37586391682038e-02 2.84723841659880e-04 
3.12227402700598e+00 8.36987066207902e-02 2.87335269674214e-04 
3.13840981009128e+00 8.36379200480104e-02 2.89954571978080e-04 
3.15454559317659e+00 8.35762722537536e-02 2.92581596361649e-04 
3.17068137626189e+00 8.35137560496681e-02 2.95216188867079e-04 
3.18681715934719e+00 8.34503642561858e-02 2.97858193777902e-04 
3.20295294243249e+00 8.33860897035573e-02 3.00507453609214e-04 
3.21908872551780e+00 8.33209252328991e-02 3.03163809098022e-04 
3.23522450860310e+00 8.32548636972520e-02 3.05827099194160e-04 
3.25136029168840e+00 8.31878979626504e-02 3.08497161051378e-04 
3.26749607477370e+00 8.31200209092042e-02 3.11173830018463e-04 
3.28363185785900e+00 8.30512254321908e-02 3.13856939631782e-04 
3.29976764094431e+00 8.29815044431592e-02 3.16546321607257e-04 
3.31590342402961e+00 8.29108508710455e-02 3.19241805833098e-04 
3.33203920711491e+00 8.28392576632985e-02 3.21943220363267e-04 
3.34817499020021e+00 8.27667177870182e-02 3.24650391410763e-04 
3.36431077328552e+00 8.26932242301040e-02 3.27363143341734e-04 
3.38044655637082e+00 8.26187700024147e-02 3.30081298669786e-04 
3.39658233945612e+00 8.25433481369394e-02 3.32804678050759e-04 
3.41271812254142e+00 8.24669516909794e-02 3.35533100278162e-04 
3.42885390562672e+00 8.23895737473407e-02 3.38266382278785e-04 
3.44498968871203e+00 8.23112074155381e-02 3.41004339108747e-04 
3.46112547179733e+00 8.22318458330089e-02 3.43746783950179e-04 
3.47726125488263e+00 8.21514821663383e-02 3.46493528108354e-04 
3.49339703796793e+00 8.20701096124949e-02 3.49244381009082e-04 
3.50953282105324e+00 8.19877214000767e-02 3.51999150196606e-04 
3.52566860413854e+00 8.19043107905675e-02 3.54757641332031e-04 
3.54180438722384e+00 8.18198710796038e-02 3.57519658192114e-04 
3.55794017030914e+00 8.17343955982519e-02 3.60285002668984e-04 
3.57407595339444e+00 8.16478777142944e-02 3.63053474769850e-04 
3.59021173647975e+00 8.15603108335278e-02 3.65824872617024e-04 
3.60634751956505e+00 8.14716884010691e-02 3.68554533551656e-04 
3.62248330265035e+00 8.13820472258725e-02 3.71237261255887e-04 
3.63861908573565e+00 8.12913866422424e-02 3.73916637990182e-04 
3.65475486882096e+00 8.11997008883189e-02 3.76597708529084e-04 
3.67089065190626e+00 8.11069842445547e-02 3.79280277812459e-04 
3.68702643499156e+00 8.10132310348891e-02 3.81964149151187e-04 
3.70316221807686e+00 8.09184356279286e-02 3.84649124230967e-04 
3.71929800116216e+00 8.08225924381357e-02 3.87335003116773e-04 
3.73543378424747e+00 8.07256959270237e-02 3.90021584257733e-04 
3.75156956733277e+00 8.06277406043586e-02 3.92708664492369e-04 
3.76770535041807e+00 8.05287210293677e-02 3.95396039054727e-04 
3.78384113350337e+00 8.04286318119544e-02 3.98083501580362e-04 
3.79997691658868e+00 8.03274676139194e-02 4.00770844112868e-04 
3.81611269967398e+00 8.02252231501886e-02 4.03457857111889e-04 
3.83224848275928e+00 8.01218931900456e-02 4.06144329460347e-04 
3.84838426584458e+00 8.00174725583717e-02 4.08830048472822e-04 
3.86452004892988e+00 7.99119561368903e-02 4.11514799904341e-04 
3.88065583201519e+00 7.98053388654171e-02 4.14198367959218e-04 
3.89679161510049e+00 7.96976157431160e-02 4.16880535301303e-04 
3.91292739818579e+00 7.95887818297593e-02 4.19561083063921e-04 
3.92906318127109e+00 7.94788322469935e-02 4.22239790860791e-04 
3.94519896435640e+00 7.93677621796093e-02 4.24916436797288e-04 
3.96133474744170e+00 7.92555668768165e-02 4.27590797481976e-04 
3.97747053052700e+00 7.91422416535229e-02 4.30262648039189e-04 
3.99360631361230e+00 7.90277818916172e-02 4.32941711909415e-04 
4.00974209669760e+00 7.89121723963988e-02 4.35713853381451e-04 
4.02587787978291e+00 7.87953160307733e-02 4.38568273324128e-04 
4.04201366286821e+00 7.86772072293745e-02 4.41419605838535e-04 
4.05814944595351e+00 7.85578405088717e-02 4.44267582247548e-04 
4.07428522903881e+00 7.84372104696609e-02 4.47111932036394e-04 
4.09042101212412e+00 7.83153117975629e-02 4.49952382871538e-04 
4.10655679520942e+00 7.81921392655251e-02 4.52788660620467e-04 
4.12269257829472e+00 7.80676877353287e-02 4.55620489371808e-04 
4.13882836138002e+00 7.79419521592993e-02 4.58447591456722e-04 
4.15496414446532e+00 7.78149275820225e-02 4.61269687470855e-04 
4.17109992755063e+00 7.76866091420616e-02 4.64086496296763e-04 
4.18723571063593e+00 7.75569920736802e-02 4.66897735127965e-04 
4.20337149372123e+00 7.74260717085658e-02 4.69703119492816e-04 
4.21950727680653e+00 7.72938434775572e-02 4.72502363279292e-04 
4.23564305989184e+00 7.71603029123733e-02 4.75295178761188e-04 
4.25177884297714e+00 7.70254456473437e-02 4.78081276624668e-04 
4.26791462606244e+00 7.68892674211404e-02 4.80860365995853e-04 
4.28405040914774e+00 7.67517640785102e-02 4.83632154468667e-04 
4.30018619223304e+00 7.66129315720084e-02 4.86396348134085e-04 
4.31632197531835e+00 7.64727659637312e-02 4.89152651609982e-04 
4.33245775840365e+00 7.63312634270485e-02 4.91900768071591e-04 
4.34859354148895e+00 7.61884202483357e-02 4.94640399283075e-04 
4.36472932457425e+00 7.60442328287040e-02 4.97371245629972e-04 
4.38086510765956e+00 7.58986976857291e-02 5.00093006152012e-04 
4.39700089074486e+00 7.57518114551776e-02 5.02805378576917e-04 
4.41313667383016e+00 7.56035708927307e-02 5.05508059355554e-04 
4.42927245691546e+00 7.54539728757046e-02 5.08200743697299e-04 
4.44540824000076e+00 7.53030144047675e-02 5.10883125606386e-04 
4.46154402308607e+00 7.51506926056526e-02 5.13554897919070e-04 
4.47767980617137e+00 7.49970047308657e-02 5.16215752341702e-04 
4.49381558925667e+00 7.48419481613886e-02 5.18849551319990e-04 
4.50995137234197e+00 7.46855395413099e-02 5.21336249604216e-04 
4.52608715542728e+00 7.45279221304334e-02 5.23692433411415e-04 
4.54222293851258e+00 7.43690949203659e-02 5.26036928049582e-04 
4.55835872159788e+00 7.42090570125949e-02 5.28369480338414e-04 
4.57449450468318e+00 7.40478076195974e-02 5.30689836640960e-04 
4.59063028776848e+00 7.38853460659425e-02 5.32997742896732e-04 
4.60676607085379e+00 7.37216717893841e-02 5.35292944655239e-04 
4.62290185393909e+00 7.35567843419463e-02 5.37575187110459e-04 
4.63903763702439e+00 7.33906833909996e-02 5.39844215135085e-04 
4.65517342010969e+00 7.32233687203281e-02 5.42099773315899e-04 
4.67130920319500e+00 7.30548402311867e-02 5.44341605989714e-04 
4.68744498628030e+00 7.28850979433488e-02 5.46569457279305e-04 
4.70358076936560e+00 7.27141419961435e-02 5.48783071130016e-04 
4.71971655245090e+00 7.25419726494825e-02 5.50982191347240e-04 
4.73585233553620e+00 7.23685902848756e-02 5.53166561634064e-04 
4.75198811862151e+00 7.21939954064349e-02 5.55335925629477e-04 
4.76812390170681e+00 7.20181886418675e-02 5.57490026947034e-04 
4.78425968479211e+00 7.18411707434558e-02 5.59628609214041e-04 
4.80039546787741e+00 7.16629425890252e-02 5.61751416111369e-04 
4.81653125096272e+00 7.14835051828994e-02 5.63858191413397e-04 
4.83266703404802e+00 7.13028596568421e-02 5.65948679028700e-04 
4.84880281713332e+00 7.11210072709848e-02 5.68022623041410e-04 
4.86493860021862e+00 7.09379494147409e-02 5.70079767752444e-04 
4.88107438330393e+00 7.07536876077057e-02 5.72119857721577e-04 
4.89721016638923e+00 7.05682235005409e-02 5.74142637810153e-04 
4.91334594947453e+00 7.03815588758441e-02 5.76147853223867e-04 
4.92948173255983e+00 7.01936956490031e-02 5.78135249556102e-04 
4.94561751564513e+00 7.00046358690337e-02 5.80104572831601e-04 
4.96175329873044e+00 6.98143817194018e-02 5.82055569550916e-04 
4.97788908181574e+00 6.96229355188280e-02 5.83987986735160e-04 
4.99402486490104e+00 6.94302997220754e-02 5.85919596258329e-04 
5.01016064798634e+00 6.92364529475596e-02 5.87970946465120e-04 
