Energy(eV)           EEDF(eV^-(3/2))      Anisotropy(eV^-(3/2))
2.86867816075018e-02 5.11188888873235e-02 1.54284868835097e-03 
8.60603448225055e-02 5.10755333660087e-02 4.54027115661287e-03 
1.43433908037509e-01 5.10621346446595e-02 4.52909264834214e-03 
2.00807471252513e-01 5.10570721243463e-02 4.53357779841722e-03 
2.58181034467517e-01 5.10537726961134e-02 4.54022207577862e-03 
3.15554597682520e-01 5.10493937837553e-02 4.54709744216669e-03 
3.72928160897524e-01 5.10425692431347e-02 4.55469287207613e-03 
4.30301724112528e-01 5.10327601136110e-02 4.56257577261031e-03 
4.87675287327531e-01 5.10200629780955e-02 4.57053990653954e-03 
5.45048850542535e-01 5.10044858066798e-02 4.57839648218368e-03 
6.02422413757539e-01 5.09860731817936e-02 4.58612674756338e-03 
6.59795976972542e-01 5.09648131450796e-02 4.59379512981325e-03 
7.17169540187546e-01 5.09406939472165e-02 4.60141119223896e-03 
7.74543103402550e-01 5.09137264553722e-02 4.60890400389126e-03 
8.31916666617553e-01 5.08839063225591e-02 4.61622132926749e-03 
8.89290229832557e-01 5.08512245942371e-02 4.62333051927486e-03 
9.46663793047561e-01 5.08156730696699e-02 4.63021011111013e-03 
1.00403735626256e+00 5.07772442568001e-02 4.63682993477226e-03 
1.06141091947757e+00 5.07362427589039e-02 4.64319414107760e-03 
1.11878448269257e+00 5.06928981726586e-02 4.64929964616313e-03 
1.17615804590758e+00 5.06472063934677e-02 4.65513312035900e-03 
1.23353160912258e+00 5.05991360775308e-02 4.66089937120446e-03 
1.29090517233758e+00 5.05483783872267e-02 4.66701683273948e-03 
1.34827873555259e+00 5.04950320587082e-02 4.67373160735734e-03 
1.40565229876759e+00 5.04393000046065e-02 4.68095889185027e-03 
1.46302586198259e+00 5.03811698353503e-02 4.68851821731594e-03 
1.52039942519760e+00 5.03206306314179e-02 4.69624050454611e-03 
1.57777298841260e+00 5.02582407896765e-02 4.70403797365676e-03 
1.63514655162760e+00 5.01940901120816e-02 4.71180411328265e-03 
1.69252011484261e+00 5.01281739639957e-02 4.71945301143326e-03 
1.74989367805761e+00 5.00604889127073e-02 4.72691389971941e-03 
1.80726724127262e+00 4.99910326595572e-02 4.73412680432813e-03 
1.86464080448762e+00 4.99198039825189e-02 4.74104067565981e-03 
1.92201436770262e+00 4.98468026878019e-02 4.74763867313685e-03 
1.97938793091763e+00 4.97712883107570e-02 4.75385378366260e-03 
2.03676149413263e+00 4.96931630034642e-02 4.75965748789935e-03 
2.09413505734763e+00 4.96124274766354e-02 4.76501234718921e-03 
2.15150862056264e+00 4.95294184396600e-02 4.76988985365629e-03 
2.20888218377764e+00 4.94446470305485e-02 4.77433037609021e-03 
2.26625574699265e+00 4.93577492954109e-02 4.77850959905556e-03 
2.32362931020765e+00 4.92685294206635e-02 4.78266644645880e-03 
2.38100287342265e+00 4.91769821085586e-02 4.78685192917835e-03 
2.43837643663766e+00 4.90831035418052e-02 4.79099027570714e-03 
2.49574999985266e+00 4.89868913589957e-02 4.79502082145694e-03 
2.55312356306766e+00 4.88881040638844e-02 4.79888750839699e-03 
2.61049712628267e+00 4.87864172294782e-02 4.80252873915214e-03 
2.66787068949767e+00 4.86818318586168e-02 4.80589414750916e-03 
2.72524425271267e+00 4.85743504156633e-02 4.80894098933221e-03 
2.78261781592768e+00 4.84639768199109e-02 4.81162972086120e-03 
2.83999137914268e+00 4.83507722752850e-02 4.81392133825165e-03 
2.89736494235769e+00 4.82349712986612e-02 4.81578865322261e-03 
2.95473850557269e+00 4.81165823233946e-02 4.81720811075196e-03 
3.01211206878769e+00 4.79956151075370e-02 4.81815136499083e-03 
3.06948563200270e+00 4.78722825039674e-02 4.81859644882551e-03 
3.12685919521770e+00 4.77466788709848e-02 4.81852882791191e-03 
3.18423275843270e+00 4.76188177694828e-02 4.81793407588584e-03 
3.24160632164771e+00 4.74887138988441e-02 4.81695423569063e-03 
3.29897988486271e+00 4.73563745724628e-02 4.81590584712637e-03 
3.35635344807772e+00 4.72217980363323e-02 4.81495756352322e-03 
3.41372701129272e+00 4.70849822948450e-02 4.81407320408443e-03 
3.47110057450772e+00 4.69459273882579e-02 4.81318081738255e-03 
3.52847413772273e+00 4.68046353346366e-02 4.81221498301869e-03 
3.58584770093773e+00 4.66611100718998e-02 4.81111579002585e-03 
3.64322126415273e+00 4.65153932796558e-02 4.80982768827081e-03 
3.70059482736774e+00 4.63675982722697e-02 4.80830351780152e-03 
3.75796839058274e+00 4.62177342213504e-02 4.80650316766041e-03 
3.81534195379774e+00 4.60658119245071e-02 4.80438803740334e-03 
3.87271551701275e+00 4.59118437439801e-02 4.80192351656381e-03 
3.93008908022775e+00 4.57558435465199e-02 4.79907867482350e-03 
3.98746264344276e+00 4.55978266447075e-02 4.79582754946062e-03 
4.04483620665776e+00 4.54377381647528e-02 4.79215044258996e-03 
4.10220976987276e+00 4.52754136834977e-02 4.78802570815856e-03 
4.15958333308777e+00 4.51108729590557e-02 4.78342860766789e-03 
4.21695689630277e+00 4.49441370503386e-02 4.77834277188024e-03 
4.27433045951777e+00 4.47752282668409e-02 4.77275416764996e-03 
4.33170402273278e+00 4.46041701170820e-02 4.76665091543365e-03 
4.38907758594778e+00 4.44309872600358e-02 4.76002281143026e-03 
4.44645114916278e+00 4.42557054779223e-02 4.75293381737902e-03 
4.50382471237779e+00 4.40783462410270e-02 4.74551776451455e-03 
4.56119827559279e+00 4.38991164673781e-02 4.73783079072709e-03 
4.61857183880780e+00 4.37181783305091e-02 4.72985630274806e-03 
4.67594540202280e+00 4.35355499059153e-02 4.72157204770917e-03 
4.73331896523780e+00 4.33512506617711e-02 4.71295355744190e-03 
4.79069252845281e+00 4.31653013838469e-02 4.70397975821837e-03 
4.84806609166781e+00 4.29777240638871e-02 4.69463273712282e-03 
4.90543965488281e+00 4.27885418289089e-02 4.68489751859053e-03 
4.96281321809782e+00 4.25977788343242e-02 4.67476185901108e-03 
5.02018678131282e+00 4.24054601976361e-02 4.66420116688451e-03 
5.07756034452783e+00 4.22113326522412e-02 4.65315172178969e-03 
5.13493390774283e+00 4.20153810548981e-02 4.64153254566103e-03 
5.19230747095783e+00 4.18176418997025e-02 4.62932723976346e-03 
5.24968103417284e+00 4.16181519199922e-02 4.61655108297574e-03 
5.30705459738784e+00 4.14169480218539e-02 4.60321975866738e-03 
5.36442816060284e+00 4.12140672547131e-02 4.58934928094246e-03 
5.42180172381785e+00 4.10095467493903e-02 4.57495594016396e-03 
5.47917528703285e+00 4.08034236919470e-02 4.56005623686538e-03 
5.53654885024786e+00 4.05957352663737e-02 4.54466683472334e-03 
5.59392241346286e+00 4.03865186317126e-02 4.52880482540040e-03 
5.65129597667786e+00 4.01758108393824e-02 4.51248785205887e-03 
5.70866953989287e+00 3.99636487966115e-02 4.49573378224855e-03 
5.76604310310787e+00 3.97500692120159e-02 4.47856053956705e-03 
5.82341666632287e+00 3.95351085740316e-02 4.46098605437102e-03 
5.88079022953788e+00 3.93188031009807e-02 4.44302822476083e-03 
5.93816379275288e+00 3.91011887232804e-02 4.42470487277618e-03 
5.99553735596788e+00 3.88823010379897e-02 4.40603480281024e-03 
6.05291091918289e+00 3.86621095243894e-02 4.38704555537957e-03 
6.11028448239789e+00 3.84405594184687e-02 4.36776505001055e-03 
6.16765804561290e+00 3.82176854549532e-02 4.34820899457648e-03 
6.22503160882790e+00 3.79935220347756e-02 4.32839228953371e-03 
6.28240517204290e+00 3.77681032206584e-02 4.30832965947217e-03 
6.33977873525791e+00 3.75414626968758e-02 4.28803573114888e-03 
6.39715229847291e+00 3.73136337574963e-02 4.26752499167942e-03 
6.45452586168791e+00 3.70846492711379e-02 4.24681176462243e-03 
6.51189942490292e+00 3.68545416725357e-02 4.22591018056806e-03 
6.56927298811792e+00 3.66233429313727e-02 4.20483415801590e-03 
6.62664655133293e+00 3.63910845469769e-02 4.18359737293710e-03 
6.68402011454793e+00 3.61577975216623e-02 4.16221325605359e-03 
6.74139367776293e+00 3.59235123570144e-02 4.14069498398444e-03 
6.79876724097794e+00 3.56882590295341e-02 4.11905546954714e-03 
6.85614080419294e+00 3.54520669893786e-02 4.09730734385659e-03 
6.91351436740794e+00 3.52149651394688e-02 4.07546294998505e-03 
6.97088793062295e+00 3.49769818364607e-02 4.05353432841575e-03 
7.02826149383795e+00 3.47381448730889e-02 4.03154801659533e-03 
7.08563505705295e+00 3.44976322655389e-02 4.00954747654263e-03 
7.14300862026796e+00 3.42554743653831e-02 3.98748273034245e-03 
7.20038218348296e+00 3.40117075267405e-02 3.96536390691697e-03 
7.25775574669797e+00 3.37663674664869e-02 3.94320312683611e-03 
7.31512930991297e+00 3.35194892665781e-02 3.92101202801263e-03 
7.37250287312797e+00 3.32711073608202e-02 3.89880177845352e-03 
7.42987643634298e+00 3.30212555391395e-02 3.87658308150197e-03 
7.48724999955798e+00 3.27699669371582e-02 3.85436618903876e-03 
7.54462356277298e+00 3.25172740421821e-02 3.83216090747910e-03 
7.60199712598799e+00 3.22632086853285e-02 3.80997661126238e-03 
7.65937068920299e+00 3.20078020490126e-02 3.78782224946160e-03 
7.71674425241799e+00 3.17510846613825e-02 3.76570635941719e-03 
7.77411781563300e+00 3.14930864050951e-02 3.74363707382974e-03 
7.83149137884800e+00 3.12338365138223e-02 3.72162213441379e-03 
7.88886494206301e+00 3.09733635821196e-02 3.69966889935541e-03 
7.94623850527801e+00 3.07116955637774e-02 3.67778435688816e-03 
8.00361206849301e+00 3.04488597825956e-02 3.65596634400555e-03 
8.06098563170802e+00 3.01852111001059e-02 3.63420101087938e-03 
8.11835919492302e+00 2.99210249961240e-02 3.61250653411750e-03 
8.17573275813802e+00 2.96563200914551e-02 3.59090586762183e-03 
8.23310632135303e+00 2.93911144465173e-02 3.56940430556687e-03 
8.29047988456803e+00 2.91254255671519e-02 3.54800683616939e-03 
8.34785344778303e+00 2.88592704200075e-02 3.52671814951628e-03 
8.40522701099804e+00 2.85926654389491e-02 3.50554251747697e-03 
8.46260057421304e+00 2.83256265604589e-02 3.48448311581081e-03 
8.51997413742805e+00 2.80581693364656e-02 3.46354243376375e-03 
8.57734770064305e+00 2.77903089128210e-02 3.44272362739097e-03 
8.63472126385805e+00 2.75220599353848e-02 3.42203015794085e-03 
8.69209482707306e+00 2.72534365813511e-02 3.40146513520050e-03 
8.74946839028806e+00 2.69844525673414e-02 3.38103143381194e-03 
8.80684195350306e+00 2.67151211642586e-02 3.36073170088743e-03 
8.86421551671807e+00 2.64454552055277e-02 3.34056836689015e-03 
8.92158907993307e+00 2.61754671015175e-02 3.32054365291359e-03 
8.97896264314808e+00 2.59051688478586e-02 3.30065958093246e-03 
9.03633620636308e+00 2.56345720394037e-02 3.28091798073871e-03 
9.09370976957808e+00 2.53636878785614e-02 3.26132049958307e-03 
9.15108333279309e+00 2.50925271887731e-02 3.24186860876982e-03 
9.20845689600809e+00 2.48211004228056e-02 3.22256361273901e-03 
9.26583045922309e+00 2.45494176757226e-02 3.20340665543245e-03 
9.32320402243810e+00 2.42774886930682e-02 3.18439872880645e-03 
9.38057758565310e+00 2.40053228833193e-02 3.16554067859880e-03 
9.43795114886811e+00 2.37329293259615e-02 3.14683321216196e-03 
9.49532471208311e+00 2.34603167834366e-02 3.12827690403362e-03 
9.55269827529811e+00 2.31874937090535e-02 3.10987220333216e-03 
9.61007183851312e+00 2.29144682584107e-02 3.09161943899341e-03 
9.66744540172812e+00 2.26412482971129e-02 3.07351882665586e-03 
9.72481896494312e+00 2.23678414116680e-02 3.05557047357084e-03 
9.78219252815813e+00 2.20942549169853e-02 3.03777438500093e-03 
9.83956609137313e+00 2.18204958667511e-02 3.02013046881269e-03 
9.89693965458813e+00 2.15465710606870e-02 3.00263854141084e-03 
9.95431321780314e+00 2.12724870544106e-02 2.98529833202396e-03 
1.00116867810181e+01 2.09982501664392e-02 2.96807040048361e-03 
1.00690603442331e+01 2.07250163745528e-02 2.95090387338528e-03 
1.01264339074481e+01 2.04532595963787e-02 2.93386037415522e-03 
1.01838074706632e+01 2.01829667387086e-02 2.91697132291786e-03 
1.02411810338782e+01 1.99141247479374e-02 2.90023607910351e-03 
1.02985545970932e+01 1.96467206167333e-02 2.88365394344816e-03 
1.03559281603082e+01 1.93807413884028e-02 2.86722416230431e-03 
1.04133017235232e+01 1.91161741627829e-02 2.85094593070258e-03 
1.04706752867382e+01 1.88530061000589e-02 2.83481839630825e-03 
1.05280488499532e+01 1.85912244259423e-02 2.81884066224522e-03 
1.05854224131682e+01 1.83308164349823e-02 2.80301179167408e-03 
1.06427959763832e+01 1.80717694949105e-02 2.78733081068673e-03 
1.07001695395982e+01 1.78140710494303e-02 2.77179669069983e-03 
1.07575431028132e+01 1.75577086258403e-02 2.75640808061525e-03 
1.08149166660282e+01 1.73026698875352e-02 2.74116340128998e-03 
1.08722902292432e+01 1.70489426242093e-02 2.72606140089483e-03 
1.09296637924582e+01 1.67965147013232e-02 2.71110107882402e-03 
1.09870373556732e+01 1.65453740643250e-02 2.69628139759172e-03 
1.10444109188882e+01 1.62955087415619e-02 2.68160128652906e-03 
1.11017844821032e+01 1.60469068478275e-02 2.66705964467632e-03 
1.11591580453182e+01 1.57995565867473e-02 2.65265534406081e-03 
1.12165316085332e+01 1.55534462537272e-02 2.63838723225752e-03 
1.12739051717482e+01 1.53085642378713e-02 2.62425413528902e-03 
1.13312787349632e+01 1.50648990243998e-02 2.61025485988757e-03 
1.13886522981782e+01 1.48224391961533e-02 2.59638819605593e-03 
1.14460258613932e+01 1.45811734355398e-02 2.58265291906051e-03 
1.15033994246082e+01 1.43410905256742e-02 2.56892379676618e-03 
1.15607729878232e+01 1.41021728903180e-02 2.55486403181624e-03 
1.16181465510382e+01 1.38644494312126e-02 2.54017916487374e-03 
1.16755201142532e+01 1.36279877628763e-02 2.52480320412433e-03 
1.17328936774683e+01 1.33928526352111e-02 2.50876784012971e-03 
1.17902672406833e+01 1.31591059714460e-02 2.49210428005491e-03 
1.18476408038983e+01 1.29268069064391e-02 2.47484324117167e-03 
1.19050143671133e+01 1.26960118261056e-02 2.45701494473582e-03 
1.19623879303283e+01 1.24667744071399e-02 2.43864911073730e-03 
1.20197614935433e+01 1.22391456577038e-02 2.41976784663781e-03 
1.20771350567583e+01 1.20135118591206e-02 2.40038515018876e-03 
1.21345086199733e+01 1.17899749859210e-02 2.38054820209788e-03 
1.21918821831883e+01 1.15685715272390e-02 2.36028832533113e-03 
1.22492557464033e+01 1.13493353095763e-02 2.33963224192722e-03 
1.23066293096183e+01 1.11322975629567e-02 2.31860608921560e-03 
1.23640028728333e+01 1.09174869869510e-02 2.29723542066353e-03 
1.24213764360483e+01 1.07049298160376e-02 2.27554520731069e-03 
1.24787499992633e+01 1.04946498847242e-02 2.25355983951203e-03 
1.25361235624783e+01 1.02866686919510e-02 2.23130312942047e-03 
1.25934971256933e+01 1.00810054651199e-02 2.20879831381602e-03 
1.26508706889083e+01 9.87767722334416e-03 2.18606805751490e-03 
1.27082442521233e+01 9.67669884022029e-03 2.16311344864760e-03 
1.27656178153383e+01 9.47808076151755e-03 2.13990468611428e-03 
1.28229913785533e+01 9.28184000451375e-03 2.11642332193036e-03 
1.28803649417683e+01 9.08799665691215e-03 2.09268382980988e-03 
1.29377385049833e+01 8.89656834642349e-03 2.06871167892437e-03 
1.29951120681983e+01 8.70757031545122e-03 2.04453164472945e-03 
1.30524856314133e+01 8.52101549510429e-03 2.02016781380981e-03 
1.31098591946283e+01 8.33691457826907e-03 1.99564358937921e-03 
1.31672327578433e+01 8.15527609189490e-03 1.97098169726278e-03 
1.32246063210583e+01 7.97610646825728e-03 1.94620418704385e-03 
1.32819798842734e+01 7.79941011632642e-03 1.92133243482123e-03 
1.33393534474884e+01 7.62518949182083e-03 1.89638716289282e-03 
1.33967270107034e+01 7.45344516428159e-03 1.87138845734085e-03 
1.34541005739184e+01 7.28417588323886e-03 1.84635576941635e-03 
1.35114741371334e+01 7.11737864436992e-03 1.82130791860130e-03 
1.35688477003484e+01 6.95304875444604e-03 1.79626310162910e-03 
1.36262212635634e+01 6.79117989519285e-03 1.77123890152864e-03 
1.36835948267784e+01 6.63176418594647e-03 1.74624621665807e-03 
1.37409683899934e+01 6.47479123578092e-03 1.72126824635974e-03 
1.37983419532084e+01 6.32024867504763e-03 1.69627499694076e-03 
1.38557155164234e+01 6.16813401796162e-03 1.67126488817826e-03 
1.39130890796384e+01 6.01844292190180e-03 1.64625803948901e-03 
1.39704626428534e+01 5.87116926184066e-03 1.62127384038887e-03 
1.40278362060684e+01 5.72630520332907e-03 1.59633096233292e-03 
1.40852097692834e+01 5.58384127407392e-03 1.57144737095258e-03 
1.41425833324984e+01 5.44376643401366e-03 1.54664033870647e-03 
1.41999568957134e+01 5.30606814392683e-03 1.52192645786711e-03 
1.42573304589284e+01 5.17073243249320e-03 1.49732165385604e-03 
1.43147040221434e+01 5.03774396184091e-03 1.47284119885728e-03 
1.43720775853584e+01 4.90708609151216e-03 1.44849972571827e-03 
1.44294511485734e+01 4.77874094087965e-03 1.42431124207583e-03 
1.44868247117884e+01 4.65268944995788e-03 1.40028914471443e-03 
1.45441982750034e+01 4.52891143864046e-03 1.37644623410009e-03 
1.46015718382184e+01 4.40738566431803e-03 1.35279472909495e-03 
1.46589454014334e+01 4.28808987790721e-03 1.32934628180231e-03 
1.47163189646484e+01 4.17100087825444e-03 1.30607699733421e-03 
1.47736925278634e+01 4.05608643666100e-03 1.28292392415247e-03 
1.48310660910785e+01 3.94333151820912e-03 1.25985188614221e-03 
1.48884396542935e+01 3.83272500023750e-03 1.23687066032822e-03 
1.49458132175085e+01 3.72425409920470e-03 1.21399881124442e-03 
1.50031867807235e+01 3.61790445360790e-03 1.19125476127649e-03 
1.50605603439385e+01 3.51369122381522e-03 1.16865260213262e-03 
1.51179339071535e+01 3.41162029615184e-03 1.14620827663603e-03 
1.51753074703685e+01 3.31167096642230e-03 1.12393890052815e-03 
1.52326810335835e+01 3.21382131649257e-03 1.10185864750728e-03 
1.52900545967985e+01 3.11804828989527e-03 1.07998092839295e-03 
1.53474281600135e+01 3.02432776502366e-03 1.05831841299273e-03 
1.54048017232285e+01 2.93263462590037e-03 1.03688305214209e-03 
1.54621752864435e+01 2.84294283053914e-03 1.01568609986618e-03 
1.55195488496585e+01 2.75522547689492e-03 9.94738135208015e-04 
1.55769224128735e+01 2.66945486650023e-03 9.74049084021241e-04 
1.56342959760885e+01 2.58560256573051e-03 9.53628242292931e-04 
1.56916695393035e+01 2.50363946452422e-03 9.33484299574857e-04 
1.57490431025185e+01 2.42353583274998e-03 9.13625360654856e-04 
1.58064166657335e+01 2.34526137437057e-03 8.94057725316781e-04 
1.58637902289485e+01 2.26876599348701e-03 8.74548105176483e-04 
1.59211637921635e+01 2.19404911730469e-03 8.55091079438944e-04 
1.59785373553785e+01 2.12107186994888e-03 8.35675407828125e-04 
1.60359109185935e+01 2.04984671179494e-03 8.16285354142243e-04 
1.60932844818085e+01 1.98034514601770e-03 7.96936136476143e-04 
1.61506580450235e+01 1.91257932314492e-03 7.77644030123610e-04 
1.62080316082385e+01 1.84652126467779e-03 7.58439190973769e-04 
1.62654051714535e+01 1.78217796290886e-03 7.39339807249306e-04 
1.63227787346685e+01 1.71951835559563e-03 7.20374043058275e-04 
1.63801522978836e+01 1.65854465046644e-03 7.01556279841203e-04 
1.64375258610986e+01 1.59922338147601e-03 6.82912062027775e-04 
1.64948994243136e+01 1.54155244909457e-03 6.64459237242012e-04 
1.65522729875286e+01 1.48549894842362e-03 6.46240492591955e-04 
1.66096465507436e+01 1.43105820384459e-03 6.28284692907046e-04 
1.66670201139586e+01 1.37818845215232e-03 6.10616841437345e-04 
1.67243936771736e+01 1.32687583026893e-03 5.93239482647159e-04 
1.67817672403886e+01 1.27707829761517e-03 5.76166284273751e-04 
1.68391408036036e+01 1.22877982177106e-03 5.59398281981151e-04 
1.68965143668186e+01 1.18193835111146e-03 5.42947174462726e-04 
1.69538879300336e+01 1.13653603132822e-03 5.26812670307797e-04 
1.70112614932486e+01 1.09253103225774e-03 5.10996110537197e-04 
1.70686350564636e+01 1.04992475873990e-03 4.95472104881246e-04 
1.71260086196786e+01 1.00868626177105e-03 4.80233655343427e-04 
1.71833821828936e+01 9.68797687657696e-04 4.65280703649102e-04 
1.72407557461086e+01 9.30219920249325e-04 4.50621865307712e-04 
1.72981293093236e+01 8.92933903352925e-04 4.36258251210479e-04 
1.73555028725386e+01 8.56900589550520e-04 4.22197054778428e-04 
1.74128764357536e+01 8.22099972173505e-04 4.08437697521725e-04 
1.74702499989686e+01 7.88493363336348e-04 3.94985999453922e-04 
1.75276235621836e+01 7.56060045430742e-04 3.81837870499293e-04 
1.75849971253986e+01 7.24760957661677e-04 3.68994401487096e-04 
1.76423706886136e+01 6.94575573654212e-04 3.56450836579551e-04 
1.76997442518286e+01 6.65467252749420e-04 3.44211092511367e-04 
1.77571178150436e+01 6.37415097233093e-04 3.32271599238199e-04 
1.78144913782586e+01 6.10383315712615e-04 3.20635122056262e-04 
